491
492
492
492
493
493
487
488
483
488
490
492
492
494
492
494
494
487
488
486
487
489
489
487
489
488
490
488
488
492
493
493
492
488
488
488
488
490
493
492
493
493
493
490
488
489
493
488
491
488
488
488
493
491
491
493
492
492
491
492
492
487
488
493
488
487
492
493
492
488
486
489
489
490
493
493
493
491
495
488
488
489
492
490
493
493
493
492
492
492
491
493
493
493
492
492
491
491
485
488
486
487
492
492
490
491
488
484
488
483
488
489
489
485
485
486
486
488
487
491
493
491
487
488
495
490
492
489
488
488
495
491
493
490
492
493
492
490
487
490
486
484
492
493
492
488
490
492
487
489
488
491
490
491
494
492
495
492
493
488
488
493
491
493
493
493
488
490
487
487
490
484
491
488
488
488
490
492
492
491
488
488
489
492
488
487
493
492
493
488
488
487
488
486
487
489
486
493
492
487
487
489
486
488
494
492
494
492
493
492
488
493
493
492
487
491
488
489
492
490
492
486
492
492
484
488
488
494
493
493
492
491
493
490
491
489
489
492
491
491
493
487
491
490
493
493
488
487
490
492
492
488
484
489
492
491
495
492
493
495
487
488
484
488
495
492
493
494
490
493
493
493
493
490
494
492
493
493
493
491
494
491
492
493
493
493
494
487
488
491
488
495
493
493
490
494
494
493
488
488
487
493
492
492
491
492
493
493
493
488
487
488
486
494
493
494
487
487
493
493
489
488
488
493
491
492
490
490
494
492
494
485
485
490
493
493
492
496
488
489
489
493
489
492
493
489
487
486
489
491
492
493
490
493
492
493
488
488
487
488
491
488
489
487
489
488
483
483
493
493
493
492
488
489
489
487
490
491
493
493
494
488
487
487
489
496
492
496
498
488
485
496
496
490
490
489
491
491
489
489
490
490
494
489
490
493
493
495
489
494
492
488
488
493
492
488
494
495
490
489
487
494
493
489
492
493
488
488
486
488
487
490
490
493
493
493
491
487
494
495
493
501
499
498
497
823
1037
3341
3341
3341
3341
3341
3341
3341
3341
3341
3341
3341
3341
3341
3341
3341
3341
3341
3341
3341
3341
3341
3341
3341
3341
3341
3341
3341
3341
3341
3341
3341
3341
3341
3341
3341
3341
3341
3341
3341
3341
3341
3341
3341
3341
3341
3341
3341
3341
3341
3341
3341
3341
3341
3341
3341
3341
3341
3341
3341
3341
3341
3341
3341
3341
3341
3341
3341
3341
3341
3341
3341
3341
3341
3341
3341
3341
3341
3341
3341
3341
3341
3341
3341
3341
1068
1133
1209
1321
1320
1157
1184
1233
1230
1222
1233
1297
1241
1249
1214
1299
1285
1285
1285
1285
1285
1285
1285
1285
1285
1285
1285
1285
1285
1285
1285
1285
1285
1285
1285
1285
1285
1285
1285
1285
1285
1285
1285
1285
1285
1285
1285
1285
1285
1285
1285
1285
1285
1285
1285
1285
1285
1285
1285
1285
1285
1285
1285
1285
1285
1285
1285
1285
1285
1285
1285
1285
1285
1285
1285
1285
1285
1285
1285
1285
1285
1285
1285
1285
1285
1285
1285
1285
1285
1285
1285
1285
1285
1285
1285
1285
1285
1285
1285
1285
1285
1262
1206
1267
1288
2056
2056
2056
2056
2056
2056
2056
2056
2056
2056
2056
2056
2056
2056
2056
2056
2056
2056
2056
2056
2056
2056
2056
2056
2056
2056
2056
2056
2056
2056
2056
2056
2056
2056
2056
2056
2056
2056
2056
2056
2056
2056
2056
2056
2056
2056
2056
2056
2056
2056
2056
2056
2056
2056
2056
2056
2056
2056
2056
2056
2056
2056
2056
2056
2056
2056
2056
2056
2056
2056
2056
2056
2056
2056
2056
2056
2056
2056
2056
2056
2056
2056
2056
1323
1182
771
771
771
771
771
771
771
771
771
771
771
771
771
771
771
771
771
771
771
771
771
771
771
771
771
771
771
771
771
771
771
771
771
771
771
771
771
771
771
771
771
771
771
771
771
771
771
771
771
771
771
771
771
771
771
771
771
771
771
771
771
771
771
771
771
771
771
771
771
771
771
771
771
771
771
771
771
771
771
771
771
771
771
771
771
771
771
771
771
771
1263
1257
1207
1237
2056
2056
2056
2056
2056
2056
2056
2056
2056
2056
2056
2056
2056
2056
2056
2056
2056
2056
2056
2056
2056
2056
2056
2056
2056
2056
2056
2056
2056
2056
2056
2056
2056
2056
2056
2056
2056
2056
2056
2056
2056
2056
2056
2056
2056
2056
2056
2056
2056
2056
2056
2056
2056
2056
2056
2056
2056
2056
2056
2056
2056
2056
2056
2056
2056
2056
2056
2056
2056
2056
2056
2056
2056
2056
2056
2056
2056
2056
2056
2056
2056
2056
2056
2056
1262
1204
1077
501
493
488
489
493
492
487
488
488
489
492
493
492
491
485
491
494
492
488
489
488
496
500
498
500
499
500
502
492
494
604
1067
1240
1267
1209
1330
1286
1542
1542
1542
1542
1542
1542
1542
1542
1542
1542
1542
1542
1542
1542
1542
1542
1542
1542
1542
1542
1542
1542
1542
1542
1542
1542
1542
1542
1542
1542
1542
1542
1542
1542
1542
1542
1542
1542
1542
1542
1542
1542
1542
1542
1542
1542
1542
1542
1542
1542
1542
1542
1542
1542
1542
1542
1542
1542
1542
1542
1542
1542
1542
1542
1542
1542
1542
1542
1542
1542
1542
1542
1542
1542
1542
1542
1542
1542
1542
1542
1542
1542
1542
1542
1343
1213
1209
1083
1285
1285
1285
1285
1285
1285
1285
1285
1285
1285
1285
1285
1285
1285
1285
1285
1285
1285
1285
1285
1285
1285
1285
1285
1285
1285
1285
1285
1285
1285
1285
1285
1285
1285
1285
1285
1285
1285
1285
1285
1285
1285
1285
1285
1285
1285
1285
1285
1285
1285
1285
1285
1285
1285
1285
1285
1285
1285
1285
1285
1285
1285
1285
1285
1285
1285
1285
1285
1285
1285
1285
1285
1285
1285
1285
1285
1285
1285
1285
1285
1285
1285
1285
1285
898
850
634
548
597
556
560
769
1223
1180
1136
1062
1033
2313
2313
2313
2313
2313
2313
2313
2313
2313
2313
2313
2313
2313
2313
2313
2313
2313
2313
2313
2313
2313
2313
2313
2313
2313
2313
2313
2313
2313
2313
2313
2313
2313
2313
2313
2313
2313
2313
2313
2313
2313
2313
2313
2313
2313
2313
2313
2313
2313
2313
2313
2313
2313
2313
2313
2313
2313
2313
2313
2313
2313
2313
2313
2313
2313
2313
2313
2313
2313
2313
2313
2313
2313
2313
2313
2313
2313
2313
2313
2313
2313
2313
2313
1049
1067
1077
1038
3598
3598
3598
3598
3598
3598
3598
3598
3598
3598
3598
3598
3598
3598
3598
3598
3598
3598
3598
3598
3598
3598
3598
3598
3598
3598
3598
3598
3598
3598
3598
3598
3598
3598
3598
3598
3598
3598
3598
3598
3598
3598
3598
3598
3598
3598
3598
3598
3598
3598
3598
3598
3598
3598
3598
3598
3598
3598
3598
3598
3598
3598
3598
3598
3598
3598
3598
3598
3598
3598
3598
3598
3598
3598
3598
3598
3598
3598
3598
3598
3598
3598
3598
3598
501
498
495
499
497
495
498
495
497
497
493
503
1030
1542
1542
1542
1542
1542
1542
1542
1542
1542
1542
1542
1542
1542
1542
1542
1542
1542
1542
1542
1542
1542
1542
1542
1542
1542
1542
1542
1542
1542
1542
1542
1542
1542
1542
1542
1542
1542
1542
1542
1542
1542
1542
1542
1542
1542
1542
1542
1542
1542
1542
1542
1542
1542
1542
1542
1542
1542
1542
1542
1542
1542
1542
1542
1542
1542
1542
1542
1542
1542
1542
1542
1542
1542
1542
1542
1542
1542
1542
1542
1542
1542
1542
1542
1542
1080
1172
2570
2570
2570
2570
2570
2570
2570
2570
2570
2570
2570
2570
2570
2570
2570
2570
2570
2570
2570
2570
2570
2570
2570
2570
2570
2570
2570
2570
2570
2570
2570
2570
2570
2570
2570
2570
2570
2570
2570
2570
2570
2570
2570
2570
2570
2570
2570
2570
2570
2570
2570
2570
2570
2570
2570
2570
2570
2570
2570
2570
2570
2570
2570
2570
2570
2570
2570
2570
2570
2570
2570
2570
2570
2570
2570
2570
2570
2570
2570
2570
2570
2570
2570
2570
1110
1110
1128
1039
3855
3855
3855
3855
3855
3855
3855
3855
3855
3855
3855
3855
3855
3855
3855
3855
3855
3855
3855
3855
3855
3855
3855
3855
3855
3855
3855
3855
3855
3855
3855
3855
3855
3855
3855
3855
3855
3855
3855
3855
3855
3855
3855
3855
3855
3855
3855
3855
3855
3855
3855
3855
3855
3855
3855
3855
3855
3855
3855
3855
3855
3855
3855
3855
3855
3855
3855
3855
3855
3855
3855
3855
3855
3855
3855
3855
3855
3855
3855
3855
3855
3855
3855
3855
1086
1192
1142
1020
988
984
1044
1133
1152
496
502
499
1042
1031
1799
1799
1799
1799
1799
1799
1799
1799
1799
1799
1799
1799
1799
1799
1799
1799
1799
1799
1799
1799
1799
1799
1799
1799
1799
1799
1799
1799
1799
1799
1799
1799
1799
1799
1799
1799
1799
1799
1799
1799
1799
1799
1799
1799
1799
1799
1799
1799
1799
1799
1799
1799
1799
1799
1799
1799
1799
1799
1799
1799
1799
1799
1799
1799
1799
1799
1799
1799
1799
1799
1799
1799
1799
1799
1799
1799
1799
1799
1799
1799
1799
1799
1799
1799
1190
1066
1053
1158
1153
1065
1141
962
494
490
489
485
488
488
487
488
491
491
491
488
488
488
486
489
484
485
487
488
488
493
492
488
488
486
493
492
488
489
489
491
494
493
486
488
490
488
488
489
489
492
492
493
492
493
491
492
492
493
492
492
492
489
494
490
488
488
492
491
489
488
488
493
492
492
488
488
488
492
493
494
492
493
492
492
486
486
485
488
486
487
487
488
486
485
488
486
492
490
491
493
489
494
492
493
493
491
490
488
487
490
486
485
494
493
493
488
486
487
488
488
485
487
492
488
492
489
493
491
491
495
492
494
492
491
490
486
488
488
488
487
489
488
488
488
488
492
493
492
493
492
486
488
488
492
494
493
488
493
493
488
489
488
490
488
489
488
488
488
487
487
489
487
490
492
493
493
490
493
492
488
487
488
492
491
493
487
487
486
488
493
493
492
493
486
488
491
492
490
487
488
488
489
485
489
487
487
492
487
489
492
490
493
493
492
493
488
488
491
493
485
490
492
489
487
488
493
