768
767
763
750
744
724
760
737
772
776
733
746
737
743
735
759
739
755
754
764
751
738
717
737
752
753
729
746
725
775
753
779
765
755
745
754
753
751
743
753
735
760
765
762
762
789
707
789
718
805
696
779
810
779
704
768
768
705
727
774
773
720
760
738
746
741
769
769
772
766
777
758
774
777
736
738
730
778
771
765
753
784
736
745
774
786
778
748
743
782
747
734
758
781
776
750
724
747
778
761
770
773
745
773
746
747
745
749
789
786
786
767
738
787
780
772
785
761
755
750
785
777
744
745
780
747
774
735
728
780
745
736
745
760
741
752
745
721
752
765
770
745
787
743
795
722
716
793
808
715
734
810
716
779
798
785
738
763
763
762
731
766
729
753
732
755
735
750
741
770
728
716
771
749
732
757
755
725
723
737
753
745
735
734
721
730
754
760
745
747
758
743
757
724
737
710
745
756
755
762
727
754
712
752
735
755
704
710
706
707
728
756
756
724
733
728
766
730
757
743
789
696
740
786
706
701
745
719
738
726
712
752
724
747
731
768
757
732
747
725
746
723
750
746
749
704
748
746
726
700
727
730
740
716
712
719
734
745
727
718
743
734
748
704
715
715
716
737
734
712
712
715
737
722
751
749
691
688
725
700
726
732
733
711
697
723
730
699
732
695
748
699
707
704
700
704
727
733
689
700
704
716
704
732
712
739
710
701
731
728
697
740
681
728
720
718
726
723
699
738
712
684
690
759
724
743
730
732
712
708
736
710
732
724
729
743
696
742
723
695
712
741
744
727
705
695
700
697
714
727
738
709
701
728
743
725
701
725
745
709
735
750
703
723
725
743
710
711
720
749
727
704
714
708
743
716
731
704
756
756
757
685
749
748
733
747
742
705
731
722
746
727
705
693
696
715
741
707
745
742
714
765
712
711
723
751
745
767
718
746
753
719
759
753
759
744
717
767
726
721
752
743
771
736
741
750
754
739
723
734
760
728
759
757
765
723
757
749
764
758
741
768
761
737
727
750
741
729
742
743
760
757
759
759
775
748
778
762
744
724
771
727
741
763
729
740
745
737
719
753
751
733
765
722
770
751
715
722
752
736
765
729
730
753
746
752
753
757
741
768
758
777
730
752
750
760
732
728
745
773
759
735
770
771
729
772
763
738
781
745
738
771
733
771
736
743
780
757
728
770
767
763
739
741
736
736
765
771
769
735
778
737
747
758
763
761
740
769
772
783
735
769
767
776
775
775
728
738
751
755
749
752
766
789
780
712
763
756
749
707
713
723
789
725
772
729
781
754
728
759
771
735
772
787
788
758
745
754
768
736
785
714
741
735
734
777
746
715
707
710
762
791
793
722
719
804
708
701
731
765
770
760
741
724
753
753
757
735
737
746
746
748
757
738
746
768
720
746
776
747
749
777
745
759
735
761
732
735
729
755
726
756
747
759
755
723
726
746
747
726
759
706
759
710
750
742
709
718
731
751
762
763
763
760
764
744
712
767
713
749
758
720
731
764
716
732
723
760
722
718
735
763
719
766
719
746
752
760
727
756
726
730
728
762
719
747
749
724
756
759
765
717
764
754
731
742
720
734
726
746
711
702
785
715
707
718
721
711
721
747
726
769
724
754
714
784
746
761
741
791
726
767
782
722
757
776
735
768
742
761
789
736
742
810
736
719
719
717
756
800
721
796
767
770
754
760
758
763
746
748
762
759
750
755
774
765
761
774
775
769
751
765
766
748
740
741
743
733
731
738
745
772
750
738
757
767
767
755
749
746
757
755
756
749
760
751
754
774
762
748
734
728
776
744
759
732
762
770
763
754
756
729
735
773
753
739
765
751
768
754
773
772
740
743
742
764
750
732
741
744
770
737
751
750
735
737
788
745
738
743
792
729
788
798
763
763
740
748
743
762
774
756
769
760
755
762
763
764
761
760
764
760
763
759
777
783
788
756
778
718
719
728
807
787
714
815
716
803
815
795
777
809
796
735
794
773
766
818
737
732
743
813
744
805
737
786
792
740
759
802
739
797
732
774
757
759
751
772
792
795
767
742
750
743
744
789
744
811
760
735
800
762
761
781
764
735
763
796
795
741
769
791
748
794
738
751
762
723
731
725
762
748
766
754
761
758
767
760
764
765
742
761
721
741
748
764
754
759
734
803
747
727
731
721
748
788
797
748
797
817
748
789
728
761
788
776
774
763
771
761
775
759
745
742
755
788
744
730
783
781
733
756
760
769
754
766
736
802
730
778
745
780
760
770
766
784
739
741
782
786
744
789
749
765
793
752
793
750
757
789
781
774
753
779
760
792
761
754
803
751
788
795
788
760
798
789
760
759
796
796
793
796
801
760
781
745
747
787
776
807
788
801
804
793
765
787
804
798
766
794
787
772
794
790
805
794
791
807
803
800
802
814
811
818
814
780
803
826
801
799
802
802
800
801
805
809
807
804
791
811
795
790
813
792
802
799
801
800
784
805
766
837
848
810
769
806
815
770
788
778
790
788
825
796
793
783
794
795
810
803
807
806
809
812
793
805
766
829
757
803
845
792
839
807
816
803
801
796
809
825
790
827
777
794
793
783
818
804
830
785
832
832
804
786
822
824
823
829
788
789
826
784
824
832
821
810
817
829
822
794
799
812
822
800
806
805
824
809
799
818
815
790
824
811
804
837
811
804
842
823
821
825
837
835
805
798
830
837
813
805
807
845
795
798
798
828
823
793
796
843
783
825
804
837
832
823
820
792
777
870
832
860
851
789
845
870
868
865
834
871
810
823
792
854
795
813
851
869
826
795
814
841
855
838
814
802
798
795
790
865
798
808
859
852
843
840
829
809
853
839
828
821
815
810
807
835
854
859
857
827
849
823
850
798
850
817
849
818
814
833
844
823
858
863
835
853
861
860
860
844
819
803
854
835
843
839
832
805
800
880
859
847
875
824
837
838
829
847
795
875
818
832
805
847
849
808
816
816
816
854
809
833
819
854
842
856
840
849
825
831
838
798
844
822
844
824
821
807
833
841
874
812
835
809
809
801
820
831
815
824
786
796
845
849
803
815
804
823
832
800
816
802
846
818
812
804
836
820
819
813
841
815
823
799
793
818
830
851
767
846
840
822
809
791
814
804
821
822
800
796
793
835
821
836
839
797
808
822
835
834
823
810
822
806
826
826
822
830
835
816
803
835
767
770
848
778
787
850
772
814
807
759
809
807
808
800
825
790
836
802
819
829
818
803
802
790
839
842
787
833
804
821
823
818
809
822
825
819
809
816
820
811
827
799
806
816
837
781
831
827
786
839
833
802
829
793
795
811
826
795
834
832
804
847
830
818
823
832
807
846
814
770
869
780
829
847
775
780
782
838
808
805
820
816
814
805
831
832
784
836
843
779
831
777
782
818
805
813
808
803
813
814
821
801
825
819
803
817
804
823
812
820
814
817
822
811
814
807
803
791
842
778
771
769
838
800
821
822
773
775
800
839
805
799
801
805
790
794
803
838
779
843
779
790
833
848
853
851
798
772
812
845
776
787
850
808
814
808
831
823
818
818
849
860
776
797
825
800
800
816
774
833
788
795
804
786
828
822
788
796
788
840
795
836
828
828
766
798
781
825
777
820
792
799
820
821
826
787
816
790
831
832
850
855
770
790
806
816
805
820
802
813
810
828
860
819
802
837
819
827
822
789
824
838
830
821
827
815
817
793
827
781
807
813
824
859
813
803
789
844
829
827
799
839
834
823
819
814
782
861
833
834
796
836
828
830
842
799
803
808
796
796
819
806
820
823
841
771
785
845
845
806
865
838
842
827
839
834
827
852
821
819
822
844
821
821
832
827
851
810
812
864
814
832
822
817
781
877
784
883
822
847
816
833
814
801
852
829
814
798
853
839
831
826
885
861
877
843
835
859
853
840
848
827
826
847
818
823
836
808
797
822
796
797
836
802
810
814
824
809
847
806
814
829
849
820
822
830
825
831
824
854
847
815
827
843
829
802
846
824
824
849
839
843
806
845
843
818
808
839
796
800
813
806
793
837
812
835
824
802
847
850
833
814
821
841
827
844
830
818
846
812
842
842
814
861
842
856
837
809
829
848
809
821
807
839
809
838
808
834
829
818
838
827
809
812
854
805
806
825
824
856
853
840
840
841
821
810
802
850
852
823
805
830
869
839
800
856
822
802
817
808
802
859
844
831
850
817
838
819
847
820
810
818
842
854
853
820
841
835
811
806
828
846
821
811
855
814
836
814
825
795
856
834
821
821
850
849
845
830
820
844
842
825
847
831
815
808
844
815
868
835
804
855
840
848
841
839
827
832
838
838
844
837
838
845
815
841
850
873
792
806
864
849
842
823
884
810
861
867
845
829
840
848
860
860
830
838
865
867
836
880
834
858
846
873
833
848
869
831
869
835
848
871
865
868
842
827
834
839
841
845
828
829
831
863
868
836
868
846
859
852
836
874
849
863
831
842
879
876
880
862
841
870
852
838
836
873
848
842
878
856
867
847
880
843
843
892
875
864
870
882
859
903
902
914
870
822
909
865
832
921
833
821
830
885
840
880
835
885
838
859
885
870
846
866
909
915
898
821
920
853
816
827
874
891
829
888
825
897
879
901
839
841
877
855
860
845
882
887
889
830
874
875
862
872
873
836
839
849
869
889
842
883
879
844
859
831
819
840
858
874
860
854
865
869
852
856
860
849
842
847
829
838
825
883
854
857
860
862
837
832
864
847
853
857
864
874
874
865
849
843
827
869
839
880
873
828
875
878
834
874
850
870
853
883
870
862
867
879
866
907
878
819
818
817
854
854
858
821
835
872
849
857
844
861
868
856
842
877
852
871
845
848
830
878
857
830
898
863
828
839
858
858
866
860
852
849
851
861
865
844
864
863
863
868
854
856
858
857
843
865
838
859
864
860
848
867
875
839
838
845
832
865
856
871
833
871
855
866
862
833
841
858
870
866
832
866
829
833
835
848
851
854
829
837
865
873
835
870
867
872
868
868
852
850
824
831
841
827
866
857
814
820
834
819
822
848
829
836
841
842
824
827
866
812
847
841
826
830
837
837
841
849
849
870
870
841
806
825
849
825
836
828
827
829
862
844
829
847
865
864
813
841
825
813
863
862
841
849
842
849
866
855
859
866
836
868
839
863
860
834
833
897
809
808
819
910
816
838
906
804
869
818
875
835
842
841
832
876
885
819
875
870
824
840
852
876
833
833
835
835
833
834
836
851
874
860
826
820
818
821
827
826
840
821
818
875
836
859
861
819
821
839
846
892
830
835
881
816
865
887
876
832
867
860
871
851
872
874
870
874
859
877
853
837
855
858
847
846
852
822
869
836
824
866
830
820
823
849
840
814
811
870
849
823
838
848
844
846
848
841
841
819
813
837
846
820
844
842
825
844
829
825
821
820
857
834
845
830
862
863
874
865
793
887
844
878
856
839
792
850
866
862
825
862
839
879
853
847
849
823
828
867
834
823
832
856
824
812
827
862
815
867
816
847
836
820
846
838
816
863
833
807
850
837
860
815
840
866
824
810
845
854
853
830
817
833
852
855
837
817
815
834
853
823
845
827
826
849
828
838
809
813
855
824
864
844
824
815
855
854
855
869
849
839
835
862
874
848
827
876
873
849
852
827
824
851
844
859
835
858
840
828
871
823
864
842
832
870
831
854
838
878
822
829
855
831
866
819
832
879
825
884
833
833
872
827
854
854
842
831
849
852
865
821
832
859
871
863
836
856
839
853
857
835
825
851
847
841
850
820
807
835
816
862
860
830
810
855
849
836
807
826
837
811
829
852
801
831
849
848
855
853
850
838
805
839
847
834
820
855
828
812
853
809
810
810
849
821
824
847
839
823
821
820
814
827
840
854
807
808
811
821
854
824
864
855
847
822
850
832
816
845
835
811
848
813
847
829
833
846
814
810
813
807
815
835
831
838
852
844
834
817
814
841
832
827
822
833
808
806
817
860
835
821
821
843
817
834
828
850
855
794
849
788
855
804
855
823
785
819
844
861
844
786
853
833
779
853
838
825
806
855
864
865
848
823
805
838
869
853
861
849
784
864
809
785
827
837
823
811
822
836
775
870
881
867
776
865
838
800
795
791
789
814
868
818
803
884
777
820
804
852
816
819
848
869
851
824
825
856
857
831
827
850
862
817
841
836
826
824
859
831
823
820
818
860
819
861
813
859
813
844
855
823
816
821
823
850
824
840
836
805
840
850
852
823
826
850
830
832
844
828
833
853
826
854
831
843
842
829
828
855
832
826
828
861
835
820
856
851
828
819
821
823
821
810
837
832
813
857
841
811
840
821
858
844
850
857
834
808
827
857
810
849
832
848
836
853
825
816
843
845
820
850
836
820
854
820
851
823
830
836
816
835
845
859
857
820
825
852
804
838
850
821
829
864
822
827
843
863
834
824
865
824
826
857
853
840
824
824
826
832
856
847
854
848
851
861
823
836
826
852
856
824
817
851
854
836
828
838
868
827
873
822
861
870
871
854
827
845
838
875
857
878
882
849
884
816
839
843
833
844
850
861
842
867
872
838
897
809
902
884
862
886
867
843
890
824
843
868
888
900
842
897
850
871
884
854
861
867
890
858
843
840
832
824
874
877
855
861
863
867
866
851
850
844
877
879
900
852
854
868
843
896
892
889
874
846
863
848
880
877
899
897
891
880
847
897
877
878
890
857
850
854
858
879
887
870
854
862
899
858
849
897
891
887
853
855
862
873
875
886
867
869
902
850
900
849
869
874
853
891
876
896
863
876
891
848
825
840
883
906
898
854
889
876
880
861
882
893
899
882
849
870
881
875
872
860
860
867
871
869
845
845
851
856
853
852
843
845
850
872
872
878
887
876
899
896
845
870
866
850
877
885
885
891
888
851
880
881
860
877
896
874
846
840
859
884
890
880
851
845
873
891
843
869
882
861
853
876
881
877
874
867
861
871
884
885
859
860
864
872
847
886
887
888
895
854
891
891
857
875
861
867
853
843
894
839
866
870
878
872
888
883
878
884
890
862
883
878
883
872
882
876
865
883
870
865
878
883
875
858
893
855
885
879
887
877
856
859
848
865
837
841
874
897
841
847
890
850
873
880
884
876
880
874
881
872
859
859
884
864
868
866
886
902
909
853
831
839
836
862
886
866
861
880
889
883
874
852
860
830
915
830
862
886
871
892
895
876
888
852
885
820
841
828
829
905
866
823
916
833
859
902
867
828
854
855
879
850
848
860
881
873
879
871
880
884
888
871
845
857
869
882
858
890
896
900
875
927
847
854
880
877
898
877
901
870
892
860
882
858
880
858
881
877
864
896
875
894
880
878
900
903
891
896
905
861
878
861
858
903
912
886
852
920
890
856
919
888
849
879
913
918
915
909
894
906
917
850
865
869
873
855
850
879
907
865
889
900
888
882
866
871
888
884
866
894
898
882
868
896
865
897
864
895
866
881
895
892
851
898
914
846
915
837
825
878
909
817
927
831
905
869
859
882
863
876
910
821
847
885
876
843
852
847
857
861
889
863
838
842
867
857
890
878
851
838
885
847
882
850
828
853
888
868
880
892
881
872
852
859
860
837
860
889
893
863
846
914
821
863
895
851
890
853
861
855
903
894
895
901
893
882
888
884
884
891
900
863
893
865
875
893
885
866
868
882
866
908
896
850
896
864
885
895
840
848
880
893
837
859
881
874
867
884
845
863
862
845
833
873
857
877
827
883
860
842
879
857
869
841
839
853
828
868
828
866
828
822
819
827
838
832
817
855
850
807
827
847
834
824
826
839
832
822
827
854
855
854
859
831
847
828
862
836
832
846
847
846
820
853
869
855
813
843
872
821
857
855
815
817
864
816
862
864
839
826
870
835
860
854
827
871
858
854
850
867
847
810
865
850
832
838
865
818
848
838
832
840
844
854
818
853
849
819
860
870
843
824
835
870
833
837
833
825
865
857
823
873
818
850
855
835
863
854
839
839
839
860
853
836
866
810
810
867
813
828
830
869
828
817
852
871
832
864
864
845
873
823
873
831
870
841
873
837
867
876
864
847
863
868
870
837
825
827
840
856
868
876
872
850
829
860
831
863
840
860
865
843
860
860
835
833
845
836
822
872
873
847
833
828
870
868
850
818
863
862
832
867
863
848
853
842
872
877
821
868
847
853
856
853
845
822
856
872
831
874
848
866
856
872
867
847
833
831
849
862
847
826
858
859
867
862
808
853
845
848
847
849
841
854
792
819
824
815
825
836
840
838
811
811
832
831
806
815
843
797
808
799
833
791
829
803
821
833
812
829
821
826
821
791
797
818
821
809
797
791
794
794
789
813
818
805
808
770
813
793
831
765
765
753
850
777
823
773
856
754
857
818
767
754
767
771
787
787
768
785
845
781
831
775
837
861
802
768
784
847
773
822
817
779
842
800
806
828
797
798
834
780
771
775
811
842
803
775
787
842
785
837
804
800
817
777
834
840
776
799
797
789
831
824
778
792
789
782
829
823
790
808
802
808
812
802
794
803
802
775
795
786
785
802
790
792
809
787
784
810
771
779
805
819
808
781
794
823
784
775
775
816
766
778
788
814
804
799
811
809
793
794
786
799
804
786
780
799
828
766
823
764
821
769
810
817
777
817
820
785
828
830
801
813
758
765
814
771
819
808
757
795
807
783
758
781
801
816
822
808
790
756
782
788
763
772
818
791
762
791
809
817
798
766
816
771
761
822
776
827
840
855
848
852
758
828
818
822
800
817
797
823
770
758
781
784
799
813
782
776
794
810
812
811
812
778
819
816
766
801
796
772
785
774
822
824
787
827
796
796
771
794
819
825
802
764
756
759
813
780
828
791
822
835
817
823
813
817
777
794
793
780
783
782
816
771
784
822
812
825
838
789
771
777
844
764
777
789
772
783
824
855
857
790
838
828
828
835
807
799
767
749
863
851
764
776
822
791
801
811
792
782
818
799
820
774
784
786
758
841
813
817
826
827
826
832
835
833
809
812
828
814
807
816
808
801
834
837
832
813
823
820
837
830
831
820
798
825
820
809
826
826
813
808
814
845
831
809
830
848
832
820
810
836
820
826
817
853
851
819
803
841
846
831
802
841
851
846
802
802
818
793
775
784
855
855
851
803
810
810
810
863
806
820
838
858
857
843
832
836
828
821
820
860
827
829
858
849
818
850
821
846
837
820
837
838
808
854
863
840
813
812
816
850
850
834
863
822
817
841
826
823
865
840
840
848
858
868
875
858
825
814
814
837
860
868
869
860
860
863
847
866
814
842
861
824
853
840
844
821
828
870
854
852
868
812
874
865
872
867
833
835
857
832
862
872
850
853
847
861
846
860
838
860
870
865
860
823
863
863
822
813
865
838
831
859
872
843
825
829
872
852
832
879
831
857
863
864
841
876
873
838
841
839
848
850
829
842
882
822
877
870
826
849
855
863
846
842
874
846
876
848
842
855
880
844
881
871
831
866
851
828
878
883
864
876
887
873
849
863
868
866
842
863
881
875
861
843
855
883
836
883
875
898
883
882
893
849
847
851
834
847
843
842
876
850
878
833
860
836
881
832
831
844
873
880
839
881
870
877
847
880
835
847
864
851
864
841
883
856
878
867
874
872
853
838
852
883
879
847
872
883
893
888
859
844
836
858
889
856
853
875
842
891
841
860
875
857
882
871
887
879
880
910
848
849
891
831
886
883
894
862
846
884
888
850
860
884
876
880
880
885
897
851
861
885
858
830
923
841
825
857
915
838
871
920
826
937
901
918
914
832
915
851
839
935
844
915
825
823
826
820
925
825
891
901
829
888
915
863
846
864
888
912
895
868
856
838
874
868
852
909
907
850
844
888
850
868
875
875
883
884
846
873
886
877
886
858
896
902
868
872
828
824
866
864
883
830
886
829
890
899
887
837
900
833
835
861
898
854
843
883
888
866
885
839
884
881
833
864
815
907
824
916
825
838
870
843
814
879
921
816
915
849
848
916
821
806
869
840
849
869
872
830
874
864
868
871
858
857
895
864
859
863
889
881
891
854
842
860
904
861
869
907
876
879
853
891
900
890
875
884
866
863
856
899
828
880
897
885
864
882
846
851
857
880
860
849
879
877
879
856
894
855
890
888
851
872
856
896
895
876
902
897
857
874
846
915
907
887
908
877
867
913
852
849
848
910
950
921
837
880
898
892
881
873
856
855
852
872
916
867
911
904
892
861
885
891
877
894
856
866
866
858
887
887
873
896
876
895
870
856
861
891
894
910
901
906
906
879
878
865
922
924
858
883
915
850
917
914
859
913
897
901
865
876
852
904
889
894
873
861
873
897
903
893
863
890
879
890
882
867
903
900
885
865
868
884
875
884
855
881
857
906
910
872
879
871
869
906
857
889
891
865
852
873
850
843
905
848
902
898
899
900
900
881
895
897
879
880
875
894
855
860
872
851
899
839
889
825
901
864
868
903
871
874
872
894
885
913
915
913
866
887
914
916
904
866
918
865
921
868
876
889
882
869
877
911
884
865
882
912
878
890
872
891
907
897
877
890
905
874
888
908
888
868
902
915
869
909
898
885
872
882
891
904
893
890
876
900
905
874
898
885
898
922
873
920
919
903
905
860
892
918
916
916
882
868
914
891
876
909
906
879
867
870
914
897
906
871
905
899
891
906
866
912
877
891
915
895
908
895
871
872
854
904
879
873
900
860
887
895
883
870
907
878
872
904
907
898
856
906
876
881
915
913
875
899
867
908
877
883
860
899
903
909
911
891
895
891
904
912
882
871
888
903
910
909
890
875
885
883
896
873
885
914
887
871
910
851
870
908
899
903
848
904
909
904
858
878
861
903
884
888
906
890
899
889
859
859
853
908
905
873
898
900
895
876
858
865
855
872
906
883
858
900
906
878
869
858
853
847
902
861
875
869
846
860
874
859
901
860
864
888
906
875
846
858
859
855
846
880
902
853
891
903
893
859
855
914
903
846
908
889
852
900
842
841
867
901
867
874
906
881
848
885
864
892
866
862
859
882
874
887
858
901
861
885
873
875
849
863
901
861
864
893
903
895
858
873
882
876
864
870
865
898
844
874
883
914
881
889
853
854
877
904
899
854
903
912
891
863
893
909
863
911
873
899
875
892
911
892
881
884
906
896
874
895
887
914
898
881
922
862
886
857
916
910
860
932
881
854
876
908
931
884
920
919
878
900
873
913
880
903
920
889
869
884
921
929
893
914
891
900
910
919
885
887
910
856
903
933
883
916
868
871
906
899
903
891
919
890
875
925
920
918
921
933
878
895
901
884
936
868
873
889
884
884
923
875
892
914
868
862
925
922
883
870
942
908
902
933
904
941
903
942
894
921
914
938
942
935
898
916
909
899
945
940
926
948
896
888
942
953
911
945
933
942
950
889
927
914
904
929
975
944
903
930
956
894
917
947
937
930
925
940
943
960
950
938
947
951
954
954
953
956
958
943
948
913
922
947
934
947
965
912
951
972
938
956
964
953
979
954
968
929
923
931
933
936
925
958
917
905
949
915
988
941
928
931
938
922
936
973
945
941
939
934
912
956
932
953
950
958
909
911
960
900
901
908
956
907
925
922
917
909
891
957
907
944
942
930
914
932
885
910
894
935
935
924
933
914
935
898
898
930
912
889
929
933
905
921
902
930
928
879
915
887
892
893
934
937
931
919
918
896
937
914
921
885
891
885
926
880
923
893
892
900
911
908
899
894
901
922
921
887
931
888
891
898
916
892
933
912
936
899
922
879
936
885
927
928
875
936
924
934
899
891
878
910
936
895
901
898
942
932
931
892
886
865
958
968
951
865
856
869
863
890
951
897
865
899
952
881
881
939
891
873
881
901
884
926
937
931
922
914
926
889
904
913
894
886
928
888
903
939
933
914
902
875
878
905
916
887
904
929
889
905
920
877
887
914
870
916
884
909
866
902
872
892
876
889
884
881
885
914
913
879
876
901
890
917
929
911
940
941
963
943
926
939
918
897
930
908
911
942
950
881
885
878
878
921
884
878
885
914
909
911
906
912
888
886
912
895
931
891
897
905
912
908
927
895
912
903
926
921
900
945
940
924
931
926
932
902
913
929
931
896
930
910
930
927
936
929
930
886
948
899
897
906
947
941
906
941
906
948
954
901
945
947
945
941
940
944
901
897
965
993
890
972
974
903
926
901
956
886
979
967
924
948
957
945
914
967
934
921
929
950
942
941
943
940
989
988
986
939
941
982
964
974
985
987
977
966
934
988
965
986
981
987
939
993
970
991
943
971
1007
994
958
992
988
969
1004
975
960
960
969
977
986
958
1004
995
996
977
983
977
951
968
976
991
974
965
976
975
981
963
969
950
965
953
952
998
996
977
964
1008
982
971
989
990
970
1025
943
936
973
985
986
971
967
966
1002
980
1003
973
974
1000
967
984
968
987
967
954
963
960
998
989
964
991
964
981
968
987
962
967
954
959
972
973
963
963
974
977
1006
991
988
993
978
987
988
961
999
1004
1005
996
999
999
998
974
969
992
951
955
975
999
1002
971
1012
1005
1011
1001
991
990
966
965
996
955
1000
963
1020
1016
988
1004
975
1015
996
972
990
1001
1001
968
1015
1023
982
1022
989
969
1005
1009
982
1034
966
1042
955
988
990
992
1017
1064
1041
1000
970
1053
1005
1026
967
1018
988
1030
1018
1011
1040
980
991
1025
1024
988
980
992
989
1040
1009
1034
1029
1006
1008
1018
1025
1013
1020
1013
1044
1036
983
1022
1052
1031
994
986
989
1009
1052
992
1054
1013
1030
1014
997
1065
1048
1000
1018
1050
1030
1051
1048
1024
1028
1047
1066
1024
1046
1027
1027
1049
1004
1000
1022
1009
1053
1062
1013
1006
1082
998
1004
1014
992
1018
1086
1002
1078
1060
1050
1062
1038
1041
1029
1072
1061
1054
1040
1028
1066
1071
1087
1052
1077
1072
1076
1072
1046
1035
1080
1070
1016
1084
1095
1082
1103
1037
1075
1065
1003
1065
1044
1091
1051
1093
1051
1062
1062
1108
1077
1116
1069
1115
1127
1085
1103
1118
1124
1142
1108
1104
1144
1084
1136
1097
1088
1159
1113
1109
1127
1149
1122
1112
1105
1161
1106
1094
1161
1155
1100
1139
1146
1127
1142
1140
1145
1124
1143
1139
1138
1111
1156
1109
1151
1099
1159
1141
1110
1150
1143
1124
1139
1173
1104
1165
1134
1119
1122
1124
1122
1157
1153
1160
1163
1153
1138
1145
1158
1175
1177
1092
1181
1165
1157
1137
1138
1156
1145
1124
1110
1157
1153
1147
1123
1136
1146
1149
1156
1159
1130
1174
1139
1188
1105
1125
1130
1141
1193
1100
1183
1160
1156
1174
1114
1164
1145
1148
1163
1138
1136
1168
1130
1153
1140
1164
1162
1161
1188
1187
1104
1133
1170
1170
1136
1124
1137
1167
1157
1154
1121
1153
1102
1147
1136
1154
1149
1122
1115
1156
1117
1116
1147
1167
1150
1111
1161
1147
1120
1130
1136
1130
1125
1123
1163
1125
1115
1148
1163
1149
1134
1163
1132
1127
1128
1138
1162
1117
1142
1175
1148
1110
1159
1127
1164
1162
1146
1145
1138
1153
1134
1120
1142
1152
1174
1106
1190
1132
1114
1111
1105
1148
1189
1109
1189
1168
1109
1127
1165
1126
1168
1171
1149
1170
1163
1163
1120
1141
1155
1129
1148
1132
1173
1156
1118
1162
1126
1162
1135
1165
1165
1138
1136
1167
1126
1123
1174
1112
1128
1127
1124
1141
1141
1164
1164
1152
1149
1151
1145
1164
1143
1145
1158
1149
1158
1145
1155
1151
1155
1175
1175
1171
1211
1138
1174
1160
1156
1206
1177
1161
1175
1165
1145
1193
1182
1193
1131
1125
1181
1126
1105
1107
1122
1171
1187
1114
1174
1169
1141
1155
1115
1112
1132
1199
1150
1132
1182
1141
1176
1166
1156
1162
1148
1151
1151
1164
1144
1162
1152
1150
1159
1165
1147
1167
1156
1143
1154
1135
1181
1136
1183
1119
1128
1206
1136
1130
1186
1201
1196
1187
1197
1177
1129
1165
1143
1175
1130
1113
1195
1097
1172
1211
1173
1148
1183
1132
1166
1143
1122
1186
1197
1184
1148
1153
1156
1144
1152
1142
1156
1138
1160
1147
1146
1150
1180
1164
1133
1181
1151
1139
1186
1128
1181
1125
1144
1166
1188
1191
1167
1130
1145
1192
1140
1164
1134
1158
1171
1171
1156
1130
1172
1137
1150
1179
1152
1155
1160
1156
1162
1154
1165
1166
1162
1181
1115
1121
1161
1129
1140
1157
1156
1164
1169
1175
1124
1164
1182
1188
1181
1200
1177
1115
1201
1113
1182
1151
1160
1125
1143
1127
1171
1169
1151
1156
1157
1156
1136
1135
1101
1211
1136
1187
1207
1184
1149
1164
1173
1143
1198
1131
1192
1183
1166
1147
1155
1145
1138
1159
1211
1169
1165
1165
1173
1159
1153
1158
1163
1135
1137
1149
1172
1189
1171
1136
1141
1166
1169
1154
1145
1169
1171
1153
1158
1173
1141
1138
1173
1159
1164
1158
1172
1133
1179
1187
1120
1172
1183
1145
1187
1145
1151
1171
1180
1185
1171
1146
1162
1181
1176
1175
1169
1173
1178
1163
1171
1165
1183
1138
1108
1179
1142
1137
1168
1127
1155
1170
1161
1148
1152
1184
1140
1166
1141
1164
1174
1168
1176
1161
1183
1179
1189
1164
1162
1184
1145
1130
1139
1171
1177
1163
1139
1165
1142
1193
1188
1181
1143
1187
1131
1129
1170
1164
1184
1168
1189
1199
1129
1167
1160
1132
1193
1195
1134
1139
1188
1147
1149
1169
1185
1145
1172
1147
1159
1120
1133
1154
1144
1160
1150
1163
1179
1134
1188
1193
1172
1133
1159
1172
1156
1134
1133
1151
1142
1193
1151
1141
1169
1135
1223
1192
1120
1137
1192
1137
1152
1136
1119
1169
1093
1098
1162
1124
1179
1135
1175
1169
1163
1156
1149
1138
1160
1199
1218
1102
1126
1152
1170
1131
1193
1174
1145
1169
1147
1168
1141
1133
1128
1183
1126
1168
1138
1173
1175
1163
1139
1137
1157
1191
1192
1186
1161
1165
1192
1150
1133
1126
1178
1173
1170
1125
1142
1169
1189
1130
1188
1165
1150
1174
1119
1140
1156
1165
1149
1166
1165
1157
1156
1153
1160
1167
1170
1167
1171
1155
1146
1162
1163
1143
1131
1146
1158
1141
1168
1155
1162
1156
1146
1170
1146
1191
1118
1189
1132
1181
1167
1161
1170
1165
1173
1153
1151
1109
1113
1184
1097
1106
1114
1198
1117
1178
1169
1167
1151
1170
1141
1183
1164
1159
1157
1140
1176
1150
1161
1142
1186
1132
1118
1119
1169
1158
1148
1140
1172
1163
1180
1161
1162
1146
1150
1149
1149
1187
1143
1182
1167
1175
1140
1145
1149
1163
1165
1174
1171
1172
1176
1163
1148
1175
1160
1158
1168
1166
1164
1161
1162
1157
1165
1165
1161
1162
1143
1179
1150
1186
1150
1191
1194
1174
1186
1154
1136
1160
1183
1199
1132
1198
1170
1135
1169
1195
1144
1195
1131
1170
1180
1123
1202
1195
1183
1204
1147
1148
1193
1211
1204
1133
1168
1188
1191
1175
1163
1154
1139
1183
1164
1167
1136
1165
1194
1141
1200
1200
1138
1179
1129
1176
1156
1170
1173
1160
1169
1160
1170
1156
1167
1169
1149
1165
1156
1151
1167
1176
1161
1193
1177
1165
1161
1161
1149
1158
1170
1144
1194
1176
1184
1168
1177
1157
1167
1145
1161
1131
1172
1127
1179
1149
1176
1201
1124
1145
1129
1180
1144
1143
1169
1167
1141
1136
1142
1136
1186
1137
1144
1191
1128
1130
1136
1181
1189
1133
1200
1189
1141
1151
1148
1162
1162
1159
1160
1171
1144
1170
1141
1149
1171
1161
1156
1163
1155
1160
1167
1150
1163
1156
1153
1162
1159
1163
1143
1127
1173
1119
1177
1136
1152
1148
1128
1180
1154
1149
1166
1199
1136
1143
1145
1114
1112
1148
1159
1114
1194
1124
1205
1147
1125
1186
1133
1143
1137
1147
1150
1130
1153
1189
1185
1179
1196
1144
1162
1155
1152
1163
1151
1231
1155
1149
1122
1202
1155
1176
1191
1162
1171
1158
1179
1190
1173
1205
1143
1172
1135
1178
1137
1191
1182
1185
1176
1160
1152
1149
1175
1183
1187
1181
1185
1180
1159
1178
1174
1171
1174
1166
1164
1171
1167
1164
1165
1184
1173
1192
1194
1197
1187
1189
1171
1164
1147
1159
1209
1162
1213
1148
1175
1152
1177
1190
1164
1199
1136
1245
1109
1153
1256
1124
1228
1113
1232
1127
1126
1150
1137
1193
1186
1173
1174
1154
1153
1153
1175
1163
1196
1196
1173
1139
1162
1174
1161
1143
1199
1178
1195
1161
1170
1182
1193
1167
1224
1200
1164
1215
1176
1182
1187
1188
1192
1174
1180
1170
1189
1158
1209
1217
1212
1184
1174
1172
1170
1172
1160
1158
1184
1193
1181
1186
1172
1197
1132
1199
1194
1149
1168
1156
1176
1170
1147
1147
1196
1192
1134
1210
1203
1197
1193
1176
1157
1198
1156
1143
1140
1173
1199
1166
1152
1170
1233
1249
1119
1185
1132
1184
1158
1198
1157
1155
1189
1186
1155
1180
1227
1211
1112
1114
1196
1159
1156
1133
1188
1180
1164
1173
1177
1167
1148
1150
1193
1186
1161
1152
1164
1185
1164
1181
1186
1160
1205
1221
1133
1158
1157
1170
1175
1203
1122
1141
1223
1248
1236
1174
1140
1157
1156
1206
1172
1196
1145
1192
1160
1144
1193
1211
1174
1144
1196
1172
1192
1162
1176
1186
1193
1183
1190
1170
1191
1187
1165
1158
1171
1178
1196
1193
1194
1196
1165
1203
1159
1183
1208
1177
1155
1156
1170
1162
1177
1182
1189
1179
1199
1165
1181
1181
1186
1190
1172
1149
1180
1155
1160
1176
1163
1158
1207
1180
1190
1212
1190
1183
1139
1159
1198
1233
1184
1219
1167
1167
1195
1169
1175
1211
1189
1200
1177
1179
1202
1195
1181
1199
1188
1226
1195
1218
1186
1203
1189
1227
1180
1147
1153
1244
1188
1211
1167
1223
1162
1277
1261
1141
1167
1188
1176
1165
1169
1235
1207
1154
1243
1196
1173
1217
1171
1186
1190
1188
1208
1193
1186
1186
1185
1184
1204
1174
1182
1207
1189
1189
1214
1204
1181
1207
1176
1204
1178
1211
1197
1192
1213
1220
1215
1191
1181
1179
1172
1170
1166
1170
1212
1171
1212
1219
1199
1170
1219
1180
1249
1215
1198
1206
1214
1199
1198
1186
1214
1214
1216
1203
1226
1171
1175
1225
1198
1217
1227
1216
1192
1189
1189
1175
1171
1198
1173
1226
1237
1202
1191
1209
1188
1198
1198
1202
1216
1199
1180
1207
1188
1175
1213
1192
1218
1172
1178
1197
1185
1223
1231
1168
1166
1231
1179
1167
1187
1155
1191
1201
1213
1161
1214
1231
1196
1183
1226
1187
1205
1202
1197
1211
1187
1183
1207
1182
1187
1186
1183
1210
1181
1227
1210
1180
1173
1218
1225
1164
1193
1174
1208
1194
1195
1193
1195
1198
1189
1201
1175
1169
1194
1228
1176
1223
1194
1163
1169
1166
1166
1224
1202
1177
1208
1222
1212
1193
1188
1207
1227
1173
1173
1210
1225
1214
1185
1185
1232
1224
1224
1188
1170
1203
1203
1203
1198
1207
1194
1164
1175
1175
1220
1241
1244
1181
1202
1184
1208
1185
1214
1183
1191
1139
1253
1255
1143
1167
1221
1180
1203
1231
1215
1181
1184
1227
1232
1164
1234
1192
1198
1200
1211
1209
1211
1209
1219
1192
1215
1199
1206
1189
1193
1191
1214
1239
1213
1196
1172
1195
1220
1183
1167
1189
1243
1202
1177
1169
1167
1230
1197
1208
1210
1184
1197
1209
1218
1201
1203
1197
1199
1200
1172
1205
1185
1246
1209
1220
1228
1183
1236
1204
1190
1207
1190
1211
1190
1230
1185
1229
1182
1185
1221
1242
1243
1259
1242
1152
1249
1181
1214
1243
1204
1241
1249
1183
1206
1209
1210
1209
1213
1216
1194
1222
1213
1196
1224
1200
1195
1177
1255
1223
1245
1223
1226
1227
1198
1185
1254
1268
1235
1194
1180
1235
1186
1191
1213
1213
1225
1205
1212
1208
1211
1204
1235
1202
1236
1202
1203
1233
1224
1228
1225
1207
1228
1191
1192
1207
1202
1191
1192
1206
1197
1202
1226
1227
1229
1193
1181
1146
1273
1234
1210
1242
1201
1182
1175
1237
1183
1264
1223
1192
1202
1223
1251
1199
1243
1232
1233
1234
1227
1228
1196
1194
1200
1196
1231
1201
1212
1200
1240
1192
1241
1235
1183
1241
1209
1240
1202
1255
1250
1257
1256
1252
1242
1219
1190
1188
1183
1211
1258
1186
1223
1225
1213
1227
1230
1201
1198
1201
1179
1203
1208
1198
1218
1217
1235
1265
1232
1285
1298
1186
1234
1198
1245
1266
1229
1185
1170
1207
1220
1220
1205
1196
1226
1233
1221
1232
1224
1254
1235
1255
1270
1226
1243
1245
1236
1206
1254
1217
1218
1222
1233
1227
1229
1236
1203
1240
1239
1217
1237
1216
1253
1232
1199
1204
1229
1211
1221
1228
1218
1231
1200
1212
1254
1188
1261
1188
1238
1245
1242
1216
1225
1219
1217
1231
1234
1226
1203
1201
1200
1213
1205
1214
1240
1216
1228
1234
1228
1218
1220
1236
1219
1223
1221
1221
1218
1242
1236
1231
1253
1193
1262
1230
1196
1257
1229
1219
1240
1226
1222
1228
1212
1207
1180
1272
1263
1209
1230
1222
1213
1245
1208
1249
1226
1215
1217
1238
1248
1235
1233
1222
1179
1168
1311
1240
1290
1228
1249
1204
1270
1195
1251
1240
1216
1198
1234
1242
1220
1242
1225
1223
1225
1222
1222
1241
1243
1251
1246
1247
1243
1253
1247
1245
1214
1237
1262
1270
1234
1198
1253
1239
1202
1267
1199
1232
1266
1264
1266
1267
1250
1202
1244
1218
1197
1266
1204
1205
1204
1200
1206
1211
1199
1262
1194
1260
1203
1268
1249
1254
1280
1234
1204
1201
1197
1199
1208
1262
1234
1256
1214
1208
1203
1246
1224
1231
1242
1253
1193
1260
1273
1236
1198
1271
1205
1189
1252
1207
1218
1232
1226
1237
1214
1232
1223
1200
1260
1206
1233
1205
1248
1226
1243
1209
1202
1235
1210
1246
1241
1222
1232
1237
1216
1231
1225
1225
1246
1239
1197
1247
1224
1230
1202
1248
1238
1183
1215
1207
1224
1200
1185
1239
1165
1159
1237
1174
1204
1264
1212
1235
1235
1178
1211
1187
1166
1276
1251
1195
1218
1262
1200
1212
1205
1225
1246
1221
1203
1239
1220
1214
1224
1216
1226
1208
1198
1214
1234
1244
1226
1222
1245
1180
1206
1182
1169
1197
1209
1180
1270
1243
1204
1232
1237
1209
1213
1233
1246
1225
1221
1231
1238
1205
1242
1221
1186
1228
1242
1212
1236
1234
1222
1258
1271
1189
1181
1190
1204
1186
1198
1254
1264
1220
1198
1189
1179
1230
1267
1168
1250
1265
1215
1179
1273
1247
1225
1238
1223
1232
1221
1246
1224
1226
1247
1225
1214
1218
1211
1194
1212
1257
1210
1223
1259
1214
1222
1217
1241
1219
1234
1196
1204
1207
1206
1235
1222
1210
1238
1220
1238
1218
1206
1224
1231
1214
1218
1226
1209
1230
1219
1235
1239
1213
1238
1212
1241
1238
1242
1234
1194
1237
1244
1227
1234
1247
1218
1242
1228
1227
1229
1239
1230
1222
1225
1245
1244
1221
1235
1225
1218
1218
1219
1228
1233
1223
1214
1244
1250
1238
1191
1244
1268
1250
1192
1191
1290
1206
1178
1232
1207
1210
1236
1234
1234
1220
1220
1239
1206
1239
1238
1232
1209
1236
1234
1217
1240
1236
1253
1205
1184
1181
1209
1255
1219
1221
1269
1195
1184
1277
1180
1245
1278
1190
1259
1190
1234
1245
1229
1199
1239
1240
1203
1215
1226
1214
1246
1240
1219
1248
1223
1262
1262
1199
1237
1217
1256
1188
1210
1221
1241
1247
1252
1260
1263
1265
1258
1255
1196
1216
1244
1259
1256
1261
1249
1226
1199
1245
1252
1254
1221
1235
1242
1235
1223
1204
1191
1248
1249
1214
1256
1253
1249
1261
1199
1216
1259
1187
1240
1254
1255
1229
1191
1238
1234
1216
1241
1186
1269
1209
1198
1224
1270
1209
1250
1244
1242
1233
1219
1231
1231
1229
1221
1202
1255
1187
1183
1183
1258
1225
1258
1222
1244
1235
1247
1209
1209
1225
1216
1209
1222
1250
1231
1217
1200
1220
1258
1228
1235
1250
1232
1224
1223
1241
1237
1226
1213
1239
1209
1168
1276
1307
1313
1233
1197
1237
1256
1200
1178
1205
1191
1169
1301
1248
1258
1220
1231
1239
1245
1258
1202
1217
1273
1266
1245
1234
1210
1208
1232
1270
1192
1205
1209
1214
1218
1234
1280
1184
1277
1210
1185
1196
1213
1205
1190
1259
1198
1219
1225
1219
1243
1245
1243
1240
1231
1225
1227
1223
1230
1199
1236
1192
1198
1210
1202
1251
1247
1220
1220
1222
1249
1197
1229
1189
1250
1279
1248
1200
1235
1228
1234
1237
1239
1267
1268
1221
1258
1240
1265
1240
1246
1259
1217
1200
1220
1232
1229
1236
1237
1204
1221
1228
1215
1222
1218
1238
1216
1227
1211
1232
1244
1197
1242
1201
1193
1191
1260
1191
1209
1267
1254
1226
1226
1231
1236
1213
1237
1242
1239
1233
1201
1212
1229
1221
1200
1248
1207
1254
1191
1225
1198
1241
1246
1218
1233
1233
1217
1219
1227
1232
1252
1228
1232
1225
1229
1242
1255
1215
1217
1231
1214
1242
1231
1268
1201
1219
1212
1215
1238
1217
1212
1244
1213
1244
1245
1210
1215
1220
1196
1264
1189
1206
1203
1198
1235
1264
1270
1237
1208
1246
1269
1213
1198
1234
1240
1230
1203
1220
1232
1197
1248
1267
1260
1237
1233
1239
1217
1256
1251
1248
1258
1236
1216
1222
1268
1251
1203
1230
1251
1242
1219
1245
1225
1229
1246
1254
1202
1236
1231
1232
1243
1226
1238
1237
1249
1245
1251
1203
1215
1219
1220
1232
1247
1216
1245
1228
1226
1237
1236
1233
1234
1209
1219
1210
1206
1240
1223
1230
1209
1209
1257
1252
1251
1234
1261
1257
1242
1237
1219
1260
1268
1280
1224
1239
1271
1241
1218
1223
1255
1230
1249
1248
1248
1233
1246
1243
1247
1229
1243
1238
1229
1231
1246
1216
1208
1227
1276
1223
1263
1231
1224
1277
1229
1223
1239
1227
1230
1265
1271
1219
1227
1273
1238
1275
1220
1247
1232
1224
1255
1274
1263
1242
1273
1263
1238
1266
1244
1267
1218
1260
1274
1213
1266
1224
1256
1242
1250
1269
1216
1255
1253
1264
1265
1257
1243
1219
1230
1229
1220
1221
1244
1267
1256
1216
1262
1254
1212
1219
1227
1270
1259
1243
1261
1235
1234
1276
1247
1238
1243
1243
1267
1229
1224
1236
1249
1253
1206
1233
1215
1204
1266
1302
1294
1300
1237
1210
1282
1246
1199
1216
1201
1277
1221
1241
1235
1234
1220
1252
1225
1301
1284
1223
1278
1237
1250
1229
1256
1268
1236
1236
1238
1261
1229
1246
1267
1265
1267
1247
1220
1263
1271
1218
1283
1246
1217
1241
1274
1292
1279
1265
1257
1261
1244
1253
1258
1250
1266
1243
1260
1253
1257
1242
1250
1266
1276
1201
1289
1307
1270
1261
1285
1259
1292
1244
1303
1247
1259
1260
1240
1277
1243
1250
1250
1265
1257
1239
1247
1212
1302
1278
1206
1252
1323
1228
1243
1263
1298
1198
1318
1248
1270
1224
1232
1210
1298
1198
1240
1308
1326
1286
1245
1214
1246
1278
1238
1255
1248
1321
1320
1210
1249
1249
1254
1248
1291
1291
1238
1275
1211
1255
1247
1288
1269
1282
1260
1230
1244
1215
1302
1263
1272
1266
1282
1241
1231
1277
1298
1275
1207
1306
1230
1224
1259
1286
1304
1217
1246
1292
1257
1214
1274
1287
1269
1294
1221
1237
1259
1256
1253
1262
1261
1241
1263
1256
1263
1265
1252
1263
1245
1273
1261
1250
1267
1284
1213
1285
1281
1282
1298
1262
1223
1301
1209
1297
1247
1228
1293
1227
1289
1253
1298
1210
1261
1288
1270
1220
1227
1265
1262
1264
1253
1248
1270
1248
1246
1287
1222
1247
1284
1255
1276
1247
1250
1254
1253
1263
1256
1267
1254
1258
1240
1239
1288
1214
1243
1190
1299
1250
1236
1279
1311
1269
1252
1272
1285
1248
1284
1224
1287
1251
1264
1257
1253
1263
1260
1241
1275
1259
1246
1274
1260
1260
1239
1265
1272
1241
1255
1272
1248
1289
1288
1292
1270
1235
1249
1228
1211
1216
1237
1263
1267
1273
1254
1251
1265
1288
1293
1290
1296
1286
1257
1295
1273
1239
1254
1260
1276
1241
1274
1248
1256
1269
1282
1274
1282
1277
1266
1256
1273
1260
1249
1260
1260
1251
1279
1243
1283
1262
1240
1278
1275
1264
1265
1272
1248
1255
1290
1285
1235
1224
1284
1281
1278
1251
1254
1241
1256
1281
1255
1261
1259
1239
1258
1234
1230
1290
1305
1258
1264
1235
1275
1240
1241
1246
1221
1269
1250
1244
1308
1215
1288
1235
1250
1287
1218
1302
1209
1278
1308
1304
1226
1272
1216
1257
1239
1246
1291
1259
1231
1234
1246
1279
1251
1250
1275
1252
1278
1252
1259
1254
1272
1263
1256
1244
1248
1247
1252
1245
1251
1250
1252
1247
1255
1275
1247
1282
1251
1248
1243
1284
1240
1266
1278
1276
1233
1288
1212
1222
1275
1271
1248
1263
1233
1212
1238
1213
1242
1316
1240
1212
1214
1222
1245
1226
1241
1237
1252
1244
1255
1259
1244
1279
1233
1222
1225
1236
1275
1248
1253
1276
1209
1254
1216
1246
1211
1242
1221
1259
1226
1260
1215
1317
1180
1248
1300
1301
1303
1321
1246
1206
1229
1334
1178
1303
1244
1262
1249
1284
1267
1250
1254
1256
1256
1252
1260
1261
1295
1241
1280
1216
1224
1251
1225
1238
1251
1255
1254
1251
1252
1248
1270
1224
1222
1285
1285
1292
1265
1198
1288
1216
1256
1268
1254
1213
1219
1237
1273
1221
1241
1244
1222
1272
1229
1262
1227
1239
1259
1255
1256
1254
1270
1223
1237
1218
1266
1289
1283
1280
1267
1257
1216
1256
1232
1252
1222
1239
1222
1266
1252
1244
1236
1223
1285
1243
1234
1259
1287
1292
1300
1212
1274
1249
1219
1271
1211
1255
1197
1292
1250
1263
1249
1230
1245
1245
1273
1280
1264
1225
1222
1216
1253
1246
1253
1237
1184
1231
1275
1274
1202
1262
1234
1229
1257
1269
1220
1246
1268
1209
1199
1291
1265
1251
1234
1270
1245
1257
1247
1228
1210
1232
1274
1211
1309
1281
1245
1260
1228
1245
1245
1227
1235
1200
1241
1267
1230
1216
1294
1268
1222
1237
1208
1184
1300
1245
1194
1218
1207
1266
1252
1250
1251
1256
1257
1230
1226
1242
1246
1239
1245
1243
1234
1246
1244
1226
1222
1253
1200
1187
1275
1248
1212
1282
1308
1274
1246
1223
1286
1252
1253
1245
1250
1252
1212
1235
1251
1241
1210
1256
1243
1227
1288
1226
1260
1235
1212
1205
1221
1288
1204
1202
1237
1209
1228
1231
1257
1264
1231
1254
1232
1242
1194
1212
1242
1270
1233
1253
1240
1254
1217
1237
1216
1245
1219
1235
1203
1231
1224
1246
1239
1234
1255
1247
1250
1243
1233
1241
1234
1242
1229
1236
1240
1241
1231
1184
1179
1179
1193
1232
1308
1218
1206
1287
1172
1278
1311
1220
1251
1233
1270
1189
1233
1241
1282
1240
1234
1231
1233
1231
1232
1256
1239
1247
1249
1227
1265
1239
1236
1257
1247
1260
1249
1241
1244
1258
1256
1247
1246
1243
1269
1271
1229
1226
1264
1228
1268
1221
1261
1227
1239
1226
1229
1260
1223
1226
1274
1217
1219
1240
1272
1236
1261
1215
1217
1229
1216
1233
1226
1230
1242
1222
1248
1257
1247
1237
1222
1232
1223
1232
1220
1256
1222
1254
1220
1223
1235
1223
1246
1202
1208
1204
1252
1260
1245
1248
1250
1259
1252
1252
1259
1232
1230
1249
1260
1257
1233
1232
1251
1241
1243
1236
1259
1268
1242
1237
1307
1291
1258
1283
1218
1227
1239
1227
1205
1212
1260
1300
1311
1293
1239
1231
1259
1258
1217
1271
1256
1232
1238
1294
1193
1292
1321
1311
1263
1199
1194
1261
1248
1278
1228
1286
1240
1288
1298
1235
1284
1218
1286
1212
1195
1314
1290
1249
1299
1240
1258
1269
1289
1275
1283
1240
1240
1252
1250
1255
1229
1242
1254
1264
1248
1235
1260
1249
1233
1249
1241
1267
1202
1258
1240
1242
1291
1252
1266
1258
1309
1194
1235
1243
1254
1239
1249
1253
1246
1243
1244
1256
1247
1258
1236
1241
1258
1240
1245
1246
1252
1239
1243
1234
1250
1257
1256
1273
1244
1299
1265
1283
1307
1257
1198
1273
1292
1238
1216
1218
1257
1282
1280
1268
1278
1285
1281
1222
1208
1275
1250
1209
1221
1221
1226
1276
1236
1293
1229
1218
1310
1235
1282
1283
1254
1249
1285
1265
1279
1281
1276
1236
1263
1262
1260
1246
1232
1243
1249
1211
1298
1262
1245
1252
1255
1231
1203
1281
1267
1264
1264
1273
1231
1263
1259
1273
1232
1238
1228
1214
1237
1297
1228
1220
1250
1267
1297
1263
1212
1250
1257
1240
1248
1238
1294
1213
1294
1225
1252
1203
1305
1261
1206
1292
1230
1223
1227
1227
1244
1265
1251
1219
1244
1259
1264
1238
1229
1280
1253
1202
1293
1310
1270
1211
1205
1260
1261
1205
1283
1230
1249
1263
1288
1302
1243
1219
1286
1271
1200
1214
1309
1196
1223
1219
1286
1215
1260
1251
1265
1231
1249
1298
1292
1299
1287
1233
1254
1238
1248
1247
1245
1236
1243
1219
1250
1194
1309
1224
1240
1309
1243
1268
1242
1279
1237
1236
1280
1216
1277
1220
1232
1277
1259
1244
1228
1218
1213
1275
1312
1306
1260
1231
1277
1284
1309
1223
1261
1217
1306
1280
1249
1262
1254
1264
1261
1250
1259
1270
1223
1227
1220
1219
1199
1312
1256
1296
1256
1257
1297
1234
1208
1311
1195
1248
1252
1217
1244
1292
1263
1248
1267
1260
1229
1293
1303
1276
1280
1291
1232
1253
1226
1269
1232
1276
1252
1231
1258
1278
1301
1207
1251
1315
1244
1212
1221
1234
1224
1257
1231
1265
1262
1241
1255
1253
1258
1229
1282
1224
1219
1273
1198
1193
1207
1262
1316
1297
1305
1303
1290
1255
1259
1314
1197
1274
1312
1278
1222
1247
1225
1215
1274
1200
1308
1315
1309
1270
1213
1222
1302
1197
1299
1290
1274
1217
1237
1266
1195
1256
1184
1293
1262
1237
1232
1223
1242
1265
1244
1237
1252
1266
1243
1232
1244
1234
1265
1199
1184
1287
1183
1256
1210
1280
1255
1265
1228
1251
1242
1276
1273
1274
1225
1246
1229
1230
1262
1234
1280
1263
1258
1266
1278
1255
1227
1270
1248
1251
1268
1232
1250
1258
1248
1246
1260
1279
1273
1258
1294
1258
1285
1247
1295
1242
1289
1266
1256
1256
1258
1286
1290
1204
1245
1251
1292
1265
1270
1288
1275
1218
1299
1215
1217
1245
1286
1298
1306
1289
1280
1284
1290
1214
1291
1288
1254
1282
1228
1232
1262
1246
1259
1257
1216
1302
1219
1286
1238
1293
1290
1237
1266
1256
1274
1226
1281
1252
1270
1248
1297
1236
1213
1231
1289
1248
1231
1252
1280
1243
1257
1258
1234
1273
1241
1230
1286
1274
1224
1271
1288
1257
1258
1240
1231
1251
1313
1297
1244
1263
1245
1254
1236
1262
1243
1284
1231
1209
1269
1224
1241
1256
1285
1276
1249
1258
1238
1278
1267
1284
1222
1287
1235
1239
1246
1254
1273
1284
1279
1230
1232
1225
1243
1282
1240
1275
1285
1228
1240
1265
1296
1242
1266
1275
1276
1247
1266
1262
1295
1230
1226
1288
1284
1244
1243
1266
1287
1289
1228
1257
1220
1280
1298
1210
1294
1286
1250
1272
1271
1263
1256
1245
1258
1279
1239
1268
1249
1285
1232
1231
1291
1273
1287
1231
1280
1247
1251
1253
1261
1260
1257
1245
1270
1275
1273
1278
1272
1276
1276
1256
1226
1281
1240
1294
1305
1298
1298
1326
1254
1253
1205
1231
1199
1224
1303
1256
1229
1253
1272
1254
1242
1320
1220
1280
1256
1274
1261
1247
1285
1257
1295
1267
1288
1280
1261
1286
1232
1234
1271
1268
1306
1283
1257
1239
1285
1290
1257
1288
1273
1251
1238
1265
1263
1220
1254
1229
1251
1253
1229
1276
1260
1247
1243
1245
1263
1242
1254
1265
1260
1249
1267
1256
1246
1251
1251
1256
1265
1249
1250
1259
1265
1246
1252
1266
1258
1242
1262
1246
1260
1243
1260
1258
1253
1256
1261
1285
1211
1283
1270
1241
1211
1230
1267
1257
1254
1243
1258
1232
1271
1266
1235
1233
1274
1275
1254
1259
1233
1244
1259
1231
1241
1233
1248
1226
1252
1235
1298
1249
1266
1215
1211
1205
1256
1250
1281
1276
1277
1272
1257
1243
1229
1227
1235
1261
1275
1276
1267
1271
1243
1263
1251
1245
1257
1276
1232
1257
1246
1240
1246
1273
1275
1259
1277
1244
1249
1240
1240
1278
1234
1248
1269
1275
1230
1233
1251
1258
1270
1283
1268
1232
1271
1273
1246
1250
1259
1256
1247
1240
1244
1284
1226
1221
1234
1270
1277
1269
1234
1246
1251
1272
1239
1281
1234
1230
1253
1256
1277
1238
1280
1269
1281
1232
1259
1232
1235
1235
1270
1282
1242
1299
1243
1218
1235
1239
1278
1216
1249
1208
1199
1203
1222
1286
1274
1220
1260
1268
1210
1273
1276
1236
1207
1219
1298
1208
1272
1258
1211
1222
1253
1253
1222
1299
1296
1221
1245
1227
1227
1271
1243
1239
1236
1225
1273
1266
1274
1280
1285
1292
1251
1239
1295
1265
1278
1240
1241
1272
1240
1233
1235
1245
1225
1228
1224
1246
1271
1225
1235
1267
1229
1219
1248
1238
1241
1212
1227
1214
1251
1229
1257
1273
1269
1264
1235
1220
1222
1249
1267
1226
1246
1270
1234
1230
1227
1230
1268
1230
1257
1224
1279
1255
1217
1206
1212
1220
1227
1272
1279
1233
1261
1230
1243
1220
1275
1268
1226
1279
1251
1274
1220
1228
1228
1198
1285
1269
1276
1243
1251
1233
1256
1221
1197
1256
1238
1300
1268
1230
1250
1291
1262
1206
1234
1216
1226
1242
1250
1221
1248
1271
1228
1237
1273
1239
1245
1224
1247
1266
1235
1252
1245
1248
1264
1272
1259
1226
1259
1265
1215
1280
1227
1270
1261
1263
1272
1226
1254
1218
1279
1292
1272
1180
1193
1273
1253
1235
1230
1253
1233
1250
1246
1265
1268
1243
1202
1286
1234
1256
1188
1213
1191
1290
1265
1269
1246
1265
1254
1249
1229
1264
1228
1253
1247
1216
1276
1269
1284
1257
1253
1241
1287
1292
1253
1244
1267
1226
1211
1246
1279
1259
1245
1284
1220
1241
1221
1204
1205
1232
1259
1223
1302
1200
1231
1251
1227
1278
1295
1255
1234
1252
1237
1272
1235
1198
1282
1254
1235
1248
1272
1264
1217
1242
1245
1274
1262
1249
1311
1211
1254
1260
1223
1237
1251
1279
1243
1255
1230
1207
1291
1287
1220
1286
1280
1206
1312
1272
1268
1291
1231
1296
1268
1241
1215
1243
1253
1244
1268
1260
1213
1244
1277
1264
1237
1238
1231
1250
1289
1242
1222
1272
1226
1270
1291
1244
1230
1244
1195
1274
1245
1255
1260
1283
1293
1292
1222
1230
1265
1255
1254
1231
1232
1238
1210
1236
1263
1228
1252
1213
1253
1223
1261
1251
1225
1244
1278
1208
1242
1257
1233
1283
1294
1189
1188
1278
1241
1246
1290
1286
1293
1243
1281
1218
1293
1231
1263
1233
1253
1225
1253
1262
1236
1220
1263
1260
1251
1250
1246
1261
1260
1278
1224
1270
1246
1253
1266
1205
1283
1257
1245
1250
1265
1226
1244
1261
1261
1232
1243
1223
1220
1251
1206
1235
1272
1252
1226
1218
1250
1232
1238
1278
1225
1226
1209
1209
1190
1173
1196
1195
1210
1240
1199
1276
1253
1249
1215
1265
1237
1270
1243
1211
1250
1270
1221
1220
1269
1264
1264
1227
1241
1250
1255
1237
1251
1274
1293
1208
1228
1302
1203
1246
1235
1225
1282
1285
1212
1227
1261
1227
1260
1245
1253
1236
1243
1252
1246
1237
1221
1241
1260
1205
1271
1255
1250
1236
1237
1233
1211
1204
1288
1278
1197
1227
1205
1248
1208
1210
1217
1261
1252
1236
1218
1231
1260
1222
1209
1235
1241
1216
1228
1207
1263
1273
1269
1256
1219
1197
1201
1265
1231
1235
1248
1223
1244
1248
1268
1253
1209
1210
1230
1249
1269
1201
1255
1195
1266
1293
1283
1250
1240
1205
1233
1230
1261
1240
1200
1235
1254
1235
1237
1237
1204
1254
1235
1239
1236
1251
1234
1239
1238
1232
1179
1177
1236
1273
1224
1197
1309
1260
1169
1201
1200
1185
1256
1253
1185
1267
1301
1291
1178
1186
1239
1224
1245
1232
1235
1211
1249
1198
1192
1236
1289
1219
1237
1261
1196
1287
1191
1191
1270
1248
1252
1234
1244
1233
1212
1185
1182
1273
1248
1220
1200
1230
1303
1231
1191
1232
1308
1277
1208
1203
1266
1291
1286
1216
1234
1225
1234
1244
1247
1251
1236
1245
1235
1232
1235
1246
1228
1251
1253
1261
1253
1227
1222
1247
1242
1254
1232
1239
1241
1261
1253
1218
1226
1242
1236
1228
1231
1225
1240
1218
1222
1265
1259
1217
1252
1224
1260
1267
1213
1265
1272
1199
1221
1213
1254
1263
1213
1250
1257
1242
1233
1241
1262
1227
1240
1243
1214
1253
1233
1222
1253
1255
1232
1250
1267
1257
1266
1227
1280
1271
1263
1211
1235
1240
1209
1253
1267
1269
1228
1224
1267
1217
1263
1250
1238
1236
1223
1227
1258
1221
1215
1212
1220
1263
1262
1238
1270
1280
1242
1196
1251
1274
1252
1217
1237
1213
1267
1239
1247
1237
1232
1284
1240
1299
1228
1203
1292
1282
1240
1258
1215
1225
1232
1244
1245
1230
1217
1220
1213
1220
1218
1234
1241
1244
1227
1236
1244
1245
1242
1249
1241
1240
1241
1240
1232
1237
1241
1235
1240
1236
1240
1250
1251
1247
1234
1228
1202
1218
1253
1205
1255
1228
1222
1214
1234
1213
1273
1269
1233
1208
1218
1268
1198
1254
1200
1253
1270
1254
1233
1227
1257
1261
1207
1216
1248
1253
1249
1252
1228
1234
1234
1226
1207
1222
1203
1251
1233
1234
1249
1206
1230
1216
1204
1220
1221
1209
1237
1204
1215
1205
1203
1207
1251
1245
1220
1230
1231
1228
1213
1224
1233
1248
1239
1227
1212
1204
1217
1197
1233
1223
1230
1220
1212
1224
1228
1236
1209
1205
1238
1245
1246
1187
1221
1247
1241
1186
1253
1226
1195
1231
1245
1269
1209
1248
1249
1245
1240
1241
1224
1235
1232
1200
1223
1248
1219
1209
1221
1213
1192
1206
1243
1221
1224
1210
1222
1234
1229
1234
1211
1272
1242
1245
1218
1224
1228
1233
1246
1227
1212
1236
1273
1173
1292
1256
1256
1310
1169
1196
1228
1195
1179
1236
1232
1238
1235
1261
1244
1209
1268
1248
1243
1218
1240
1233
1199
1258
1261
1223
1256
1234
1214
1287
1315
1181
1255
1233
1225
1238
1235
1241
1219
1218
1220
1228
1268
1212
1232
1269
1216
1253
1225
1206
1203
1265
1232
1233
1232
1223
1222
1227
1215
1225
1224
1222
1203
1255
1269
1223
1236
1206
1228
1221
1219
1231
1248
1238
1246
1194
1248
1234
1220
1209
1256
1248
1255
1213
1228
1256
1255
1263
1212
1213
1239
1243
1256
1242
1220
1221
1221
1204
1268
1212
1279
1219
1273
1239
1250
1235
1235
1219
1210
1263
1218
1227
1252
1219
1185
1315
1294
1283
1226
1214
1201
1270
1293
1271
1271
1285
1267
1190
1279
1221
1210
1222
1246
1230
1222
1256
1212
1214
1255
1218
1221
1239
1222
1231
1215
1283
1214
1226
1274
1203
1244
1277
1205
1226
1238
1206
1270
1250
1263
1234
1252
1230
1236
1241
1221
1226
1238
1251
1252
1218
1200
1303
1196
1224
1217
1245
1230
1237
1243
1246
1241
1216
1195
1202
1206
1251
1229
1236
1236
1259
1235
1232
1247
1279
1266
1195
1291
1245
1203
1192
1246
1277
1199
1293
1269
1261
1252
1212
1269
1250
1238
1247
1229
1265
1241
1267
1239
1285
1274
1266
1216
1213
1293
1287
1241
1271
1254
1248
1244
1249
1251
1249
1228
1252
1239
1242
1235
1245
1253
1256
1246
1261
1263
1250
1250
1241
1261
1223
1237
1239
1267
1231
1247
1231
1282
1208
1237
1225
1276
1232
1229
1283
1218
1206
1230
1275
1215
1243
1227
1197
1214
1238
1218
1203
1201
1228
1211
1246
1235
1222
1202
1177
1295
1303
1184
1280
1150
1271
1198
1294
1149
1184
1174
1211
1198
1251
1216
1225
1257
1245
1220
1233
1242
1236
1269
1187
1221
1234
1202
1257
1287
1227
1244
1236
1215
1272
1225
1196
1249
1217
1313
1208
1206
1230
1256
1238
1247
1224
1266
1205
1240
1248
1257
1224
1220
1256
1240
1263
1315
1266
1223
1213
1212
1294
1261
1274
1267
1255
1230
1238
1265
1222
1219
1232
1272
1246
1224
1221
1228
1249
1268
1274
1251
1238
1237
1243
1239
1258
1247
1277
1270
1284
1284
1214
1276
1235
1247
1276
1242
1224
1268
1273
1264
1259
1270
1281
1274
1214
1292
1230
1243
1244
1212
1276
1274
1221
1210
1236
1248
1257
1231
1246
1258
1225
1270
1232
1254
1236
1270
1229
1269
1245
1237
1290
1230
1287
1290
1245
1279
1277
1256
1259
1223
1283
1236
1274
1210
1240
1213
1296
1256
1280
1244
1257
1235
1276
1270
1224
1260
1229
1245
1260
1254
1240
1250
1242
1291
1273
1308
1206
1292
1304
1280
1229
1241
1230
1250
1226
1272
1238
1218
1213
1221
1250
1299
1208
1240
1259
1216
1306
1195
1240
1300
1279
1278
1296
1221
1262
1231
1208
1204
1198
1293
1185
1291
1305
1203
1228
1192
1217
1231
1248
1247
1228
1261
1270
1261
1236
1204
1204
1198
1253
1193
1235
1223
1197
1262
1239
1265
1252
1261
1228
1256
1221
1241
1217
1288
1238
1260
1211
1247
1252
1229
1281
1298
1299
1296
1263
1242
1221
1259
1280
1218
1227
1247
1227
1223
1243
1264
1230
1235
1242
1221
1220
1211
1272
1212
1220
1251
1267
1216
1214
1276
1207
1256
1235
1250
1231
1250
1247
1253
1225
1246
1252
1226
1283
1247
1287
1211
1238
1252
1253
1216
1241
1241
1225
1257
1250
1231
1255
1255
1258
1260
1242
1236
1229
1227
1236
1250
1298
1257
1182
1195
1205
1182
1320
1260
1208
1198
1180
1175
1213
1327
1214
1298
1211
1197
1207
1267
1243
1277
1260
1235
1215
1221
1215
1221
1221
1222
1228
1246
1298
1250
1201
1280
1257
1199
1211
1259
1247
1260
1229
1231
1233
1258
1259
1256
1235
1248
1263
1216
1253
1270
1218
1258
1255
1228
1239
1260
1261
1229
1270
1255
1262
1241
1243
1235
1270
1238
1234
1284
1262
1272
1286
1218
1263
1259
1209
1275
1216
1259
1269
1264
1258
1288
1213
1235
1239
1231
1212
1229
1261
1250
1256
1233
1236
1256
1220
1256
1226
1220
1263
1252
1216
1250
1259
1224
1244
1245
1257
1259
1230
1264
1229
1267
1255
1265
1229
1251
1267
1253
1251
1257
1231
1251
1252
1259
1253
1251
1212
1270
1280
1258
1290
1191
1296
1192
1216
1292
1233
1201
1289
1204
1260
1224
1274
1182
1262
1279
1278
1272
1238
1212
1202
1227
1273
1223
1242
1255
1231
1243
1252
1228
1251
1244
1232
1224
1256
1201
1233
1280
1233
1232
1228
1246
1245
1226
1263
1253
1202
1192
1248
1220
1227
1239
1224
1258
1253
1213
1232
1225
1256
1229
1234
1247
1242
1255
1238
1280
1215
1212
1208
1210
1273
1250
1236
1257
1225
1272
1243
1266
1265
1246
1227
1270
1219
1244
1246
1223
1215
1279
1247
1266
1203
1204
1274
1202
1272
1290
1259
1203
1238
1232
1263
1262
1228
1213
1204
1265
1251
1228
1229
1234
1244
1229
1250
1239
1259
1213
1247
1265
1232
1257
1202
1215
1213
1217
1207
1208
1237
1254
1259
1244
1197
1245
1250
1243
1225
1211
1221
1210
1194
1203
1259
1217
1242
1252
1238
1219
1222
1261
1240
1244
1252
1233
1212
1276
1254
1212
1205
1237
1225
1211
1253
1212
1270
1228
1242
1228
1233
1256
1202
1200
1242
1228
1262
1273
1197
1193
1272
1178
1191
1306
1277
1222
1245
1324
1161
1278
1291
1168
1266
1321
1287
1212
1214
1226
1267
1203
1215
1192
1237
1220
1266
1220
1256
1222
1263
1207
1212
1213
1268
1249
1228
1248
1249
1244
1252
1253
1268
1219
1218
1274
1279
1246
1215
1275
1229
1228
1232
1253
1231
1242
1234
1260
1270
1263
1219
1213
1218
1262
1283
1278
1282
1267
1220
1220
1290
1213
1229
1243
1210
1198
1236
1262
1255
1226
1239
1204
1209
1271
1228
1288
1278
1188
1278
1261
1271
1302
1203
1204
1241
1245
1253
1231
1252
1260
1260
1264
1256
1224
1271
1230
1264
1238
1254
1244
1234
1262
1239
1244
1270
1222
1260
1256
1220
1251
1251
1240
1232
1263
1264
1228
1215
1230
1221
1248
1243
1270
1265
1224
1297
1275
1193
1208
1252
1258
1257
1248
1228
1247
1260
1236
1272
1267
1237
1274
1228
1229
1243
1269
1264
1225
1219
1283
1293
1240
1271
1278
1229
1246
1264
1256
1245
1265
1261
1256
1261
1233
1250
1262
1277
1273
1257
1250
1280
1243
1261
1258
1256
1244
1266
1263
1260
1261
1245
1269
1249
1271
1247
1267
1248
1267
1254
1265
1266
1244
1252
1271
1249
1262
1264
1261
1269
1253
1268
1255
1279
1281
1289
1285
1283
1270
1257
1261
1277
1225
1273
1233
1268
1225
1246
1250
1269
1289
1253
1290
1273
1220
1218
1250
1233
1282
1280
1261
1277
1273
1283
1243
1295
1257
1282
1284
1242
1225
1283
1255
1248
1252
1270
1270
1261
1263
1255
1272
1290
1284
1290
1263
1251
1256
1266
1273
1217
1215
1287
1274
1227
1288
1296
1241
1282
1227
1223
1218
1238
1289
1243
1252
1278
1215
1290
1230
1293
1236
1261
1268
1233
1252
1285
1244
1230
1289
1260
1240
1233
1259
1292
1246
1244
1253
1300
1296
1265
1239
1249
1276
1280
1275
1273
1238
1262
1240
1288
1291
1296
1281
1219
1297
1227
1225
1223
1288
1240
1283
1226
1236
1246
1221
1270
1264
1244
1241
1266
1256
1273
1243
1229
1245
1292
1270
1220
1243
1277
1283
1286
1289
1295
1278
1218
1291
1261
1225
1301
1251
1306
1285
1299
1242
1230
1232
1268
1222
1217
1283
1286
1254
1266
1279
1223
1227
1291
1277
1281
1270
1251
1296
1297
1254
1278
1265
1252
1247
1242
1251
1244
1243
1268
1246
1274
1229
1303
1289
1215
1247
1239
1272
1264
1270
1250
1247
1314
1256
1285
1223
1249
1264
1244
1250
1246
1284
1270
1198
1306
1275
1199
1345
1205
1317
1239
1353
1234
1187
1184
1269
1323
1201
1312
1227
1237
1283
1257
1265
1229
1210
1226
1273
1311
1287
1281
1293
1298
1312
1310
1296
1218
1272
1289
1230
1318
1252
1239
1303
1253
1289
1252
1253
1259
1236
1283
1283
1273
1282
1283
1280
1245
1297
1255
1245
1260
1305
1267
1224
1303
1274
1239
1242
1296
1246
1244
1262
1278
1273
1282
1258
1304
1294
1305
1292
1233
1303
1246
1230
1290
1228
1236
1226
1294
1221
1286
1316
1307
1277
1235
1216
1254
1281
1269
1221
1272
1276
1251
1266
1254
1225
1315
1307
1238
1292
1243
1240
1246
1188
1297
1248
1218
1310
1208
1327
1240
1235
1298
1265
1219
1268
1299
1294
1236
1229
1270
1278
1249
1261
1236
1257
1212
1308
1268
1279
1280
1239
1258
1303
1247
1309
1254
1262
1300
1301
1278
1301
1268
1267
1245
1302
1273
1241
1188
1225
1314
1279
1260
1293
1287
1268
1252
1305
1264
1286
1239
1223
1233
1332
1303
1310
1256
1266
1265
1255
1270
1262
1280
1263
1286
1298
1240
1255
1284
1239
1275
1307
1256
1344
1241
1299
1264
1281
1251
1259
1239
1225
1246
1287
1263
1244
1290
1264
1233
1255
1305
1223
1262
1217
1244
1296
1214
1219
1207
1305
1227
1259
1350
1331
1257
1266
1255
1213
1224
1214
1236
1306
1256
1276
1249
1310
1234
1196
1198
1189
1241
1301
1329
1263
1290
1304
1300
1201
1301
1212
1340
1221
1253
1215
1362
1295
1220
1184
1336
1235
1187
1194
1261
1252
1251
1243
1229
1241
1283
1221
1238
1272
1239
1246
1266
1289
1291
1237
1256
1240
1289
1243
1248
1303
1292
1246
1292
1255
1256
1282
1269
1237
1288
1256
1253
1268
1282
1261
1277
1246
1254
1283
1300
1254
1306
1267
1302
1219
1225
1286
1255
1252
1310
1286
1218
1314
1289
1276
1332
1282
1206
1245
1312
1318
1300
1212
1232
1283
1254
1194
1357
1198
1266
1270
1332
1272
1255
1296
1307
1228
1270
1249
1282
1245
1262
1277
1276
1274
1280
1301
1274
1310
1266
1292
1239
1297
1296
1262
1215
1281
1294
1295
1285
1307
1243
1249
1283
1282
1279
1275
1254
1258
1291
1242
1239
1247
1251
1259
1292
1251
1247
1288
1258
1279
1250
1245
1260
1304
1308
1306
1287
1246
1241
1283
1312
1273
1234
1292
1309
1261
1248
1252
1246
1240
1291
1251
1274
1251
1280
1256
1246
1304
1309
1256
1236
1301
1253
1262
1281
1271
1290
1301
1263
1261
1287
1306
1270
1299
1293
1309
1233
1270
1307
1222
1302
1241
1242
1317
1243
1238
1236
1227
1288
1261
1322
1317
1242
1286
1246
1302
1256
1335
1197
1204
1319
1251
1284
1242
1274
1273
1224
1290
1220
1316
1222
1306
1304
1300
1263
1288
1202
1217
1240
1276
1224
1305
1280
1298
1237
1237
1268
1291
1275
1250
1235
1239
1286
1274
1279
1282
1253
1269
1286
1270
1247
1279
1250
1278
1274
1259
1291
1249
1243
1303
1259
1247
1278
1291
1246
1254
1234
1287
1233
1294
1235
1241
1300
1258
1232
1234
1255
1251
1268
1238
1298
1294
1284
1284
1287
1275
1234
1293
1262
1246
1245
1291
1312
1312
1305
1287
1259
1223
1231
1228
1304
1229
1296
1245
1276
1254
1258
1270
1284
1287
1259
1299
1288
1248
1288
1237
1227
1254
1250
1219
1264
1322
1245
1241
1267
1234
1303
1306
1244
1271
1253
1259
1274
1265
1283
1273
1266
1248
1296
1253
1248
1277
1283
1241
1271
1272
1295
1239
1241
1271
1319
1234
1261
1269
1314
1287
1243
1256
1247
1286
1275
1256
1247
1311
1248
1306
1258
1292
1243
1279
1267
1279
1254
1256
1264
1297
1292
1294
1298
1256
1273
1293
1244
1296
1249
1238
1286
1261
1279
1302
1291
1246
1311
1305
1297
1264
1270
1289
1274
1269
1281
1279
1268
1278
1304
1253
1310
1245
1243
1239
1240
1310
1247
1313
1270
1289
1306
1238
1249
1259
1306
1253
1314
1256
1245
1243
1264
1319
1238
1315
1249
1313
1239
1307
1281
1238
1307
1238
1242
1259
1267
1272
1262
1240
1288
1280
1292
1284
1288
1274
1281
1290
1272
1289
1258
1315
1279
1255
1308
1249
1296
1270
1265
1286
1259
1295
1266
1248
1269
1251
1251
1240
1267
1305
1287
1269
1283
1293
1301
1290
1289
1303
1282
1270
1255
1264
1248
1295
1288
1295
1262
1294
1284
1270
1225
1288
1299
1239
1286
1274
1315
1220
1230
1294
1328
1297
1237
1223
1236
1286
1252
1252
1290
1248
1266
1271
1275
1301
1284
1268
1306
1311
1245
1271
1325
1279
1269
1313
1258
1299
1299
1262
1303
1300
1256
1263
1255
1276
1283
1286
1274
1296
1237
1250
1223
1315
1245
1249
1321
1259
1231
1260
1294
1292
1246
1247
1274
1268
1281
1291
1288
1281
1284
1263
1308
1294
1291
1295
1261
1261
1292
1229
1298
1231
1249
1306
1298
1301
1297
1225
1334
1341
1372
1192
1233
1276
1293
1249
1245
1273
1240
1257
1277
1326
1260
1250
1320
1241
1310
1270
1252
1311
1253
1258
1313
1288
1237
1280
1310
1290
1235
1284
1306
1265
1240
1259
1287
1275
1280
1271
1298
1306
1244
1323
1291
1293
1292
1234
1240
1290
1241
1266
1260
1285
1302
1258
1308
1265
1255
1292
1264
1302
1271
1270
1308
1280
1260
1261
1257
1259
1242
1316
1241
1271
1309
1304
1270
1282
1307
1323
1308
1249
1300
1246
1261
1329
1248
1277
1316
1312
1271
1252
1316
1262
1316
1246
1313
1334
1267
1238
1258
1277
1247
1271
1291
1331
1322
1320
1298
1245
1311
1247
1301
1313
1267
1285
1302
1289
1298
1332
1257
1313
1274
1250
1262
1270
1270
1235
1318
1233
1251
1308
1310
1274
1300
1272
1304
1319
1333
1297
1335
1345
1287
1302
1282
1301
1301
1308
1324
1298
1314
1231
1294
1359
1360
1332
1268
1236
1373
1236
1297
1359
1298
1255
1288
1357
1319
1237
1319
1266
1364
1334
1359
1246
1336
1334
1293
1260
1262
1241
1301
1294
1354
1289
1328
1256
1254
1294
1331
1271
1304
1299
1269
1323
1322
1263
1273
1370
1230
1336
1287
1276
1356
1345
1333
1267
1274
1259
1342
1259
1357
1244
1314
1378
1376
1283
1370
1296
1249
1252
1317
1320
1279
1372
1276
1245
1266
1273
1263
1262
1253
1249
1268
1356
1234
1296
1278
1270
1275
1295
1274
1289
1292
1313
1304
1323
1333
1295
1301
1269
1324
1302
1275
1292
1313
1307
1256
1295
1296
1237
1310
1299
1267
1327
1330
1319
1348
1339
1299
1268
1352
1256
1331
1298
1279
1277
1287
1291
1254
1312
1250
1253
1317
1262
1264
1261
1262
1270
1324
1332
1296
1256
1261
1275
1288
1310
1324
1334
1312
1253
1336
1366
1346
1234
1363
1285
1240
1311
1360
1231
1310
1309
1269
1297
1279
1306
1272
1269
1274
1274
1306
1325
1291
1285
1326
1328
1309
1281
1288
1311
1291
1295
1304
1287
1329
1297
1287
1316
1338
1329
1319
1306
1317
1285
1302
1327
1334
1294
1316
1284
1298
1300
1292
1292
1298
1311
1277
1285
1314
1260
1264
1345
1279
1321
1272
1355
1299
1251
1256
1272
1335
1364
1355
1363
1359
1360
1354
1331
1291
1250
1232
1306
1306
1349
1300
1333
1348
1293
1374
1351
1232
1269
1256
1325
1325
1288
1313
1316
1327
1307
1263
1268
1299
1338
1273
1301
1296
1303
1304
1303
1311
1308
1320
1330
1267
1336
1266
1323
1309
1312
1310
1338
1361
1360
1280
1255
1306
1332
1358
1235
1257
1312
1288
1314
1312
1314
1277
1324
1274
1325
1341
1340
1343
1282
1350
1343
1309
1318
1323
1316
1307
1316
1306
1318
1314
1279
1335
1339
1343
1349
1315
1273
1342
1265
1338
1288
1274
1357
1287
1270
1357
1279
1321
1313
1335
1269
1302
1311
1251
1365
1257
1348
1274
1307
1352
1347
1355
1301
1310
1284
1346
1330
1286
1275
1288
1314
1343
1303
1284
1268
1275
1342
1281
1327
1277
1353
1304
1270
1311
1341
1319
1244
1331
1371
1356
1343
1281
1306
1329
1248
1354
1319
1278
1327
1353
1358
1307
1342
1326
1326
1342
1277
1323
1324
1302
1320
1277
1298
1272
1331
1260
1301
1275
1311
1326
1266
1348
1313
1345
1296
1319
1338
1353
1274
1283
1287
1287
1282
1276
1266
1245
1314
1276
1321
1316
1346
1260
1280
1277
1349
1328
1295
1324
1337
1325
1324
1282
1312
1293
1330
1320
1354
1355
1357
1312
1320
1317
1272
1311
1336
1282
1351
1368
1318
1342
1337
1341
1285
1341
1293
1354
1331
1284
1318
1337
1324
1348
1277
1341
1280
1348
1350
1330
1312
1310
1353
1255
1423
1339
1346
1352
1338
1326
1381
1309
1305
1316
1301
1360
1313
1290
1372
1334
1332
1352
1352
1282
1348
1307
1331
1364
1334
1367
1396
1330
1357
1297
1366
1426
1295
1275
1428
1327
1266
1286
1385
1347
1277
1356
1324
1363
1241
1325
1264
1334
1327
1290
1355
1330
1332
1312
1335
1329
1370
1381
1292
1291
1382
1333
1382
1367
1361
1330
1338
1334
1351
1357
1305
1312
1344
1316
1370
1315
1347
1295
1297
1367
1324
1334
1336
1331
1342
1426
1327
1313
1304
1380
1306
1344
1312
1321
1346
1359
1337
1289
1324
1378
1374
1316
1348
1281
1385
1339
1319
1340
1358
1332
1372
1298
1304
1372
1376
1388
1335
1328
1322
1356
1257
1402
1380
1316
1347
1322
1297
1330
1318
1357
1323
1324
1354
1337
1332
1389
1332
1297
1326
1381
1387
1364
1340
1317
1325
1334
1342
1334
1327
1335
1334
1369
1300
1301
1312
1298
1352
1374
1362
1409
1393
1415
1368
1376
1404
1396
1348
1365
1380
1321
1358
1345
1346
1337
1350
1345
1336
1343
1350
1357
1346
1343
1348
1341
1345
1388
1310
1342
1389
1404
1385
1321
1397
1418
1337
1407
1311
1331
1357
1331
1372
1336
1354
1327
1375
1352
1311
1390
1375
1288
1381
1384
1342
1398
1359
1338
1333
1328
1366
1352
1333
1283
1327
1354
1281
1261
1425
1370
1351
1362
1350
1332
1329
1359
1353
1362
1351
1329
1335
1358
1357
1352
1385
1388
1294
1305
1372
1362
1327
1334
1348
1333
1398
1377
1361
1367
1353
1370
1374
1366
1330
1364
1349
1264
1403
1359
1269
1415
1287
1386
1330
1347
1330
1300
1371
1287
1340
1399
1303
1362
1307
1347
1368
1280
1302
1330
1331
1358
1300
1336
1370
1313
1292
1350
1288
1395
1321
1296
1400
1370
1334
1276
1284
1370
1362
1290
1287
1266
529
517
513
509
507
505
502
503
501
501
500
500
498
496
499
498
499
498
497
497
496
497
498
498
495
498
498
500
500
498
502
503
503
503
503
506
507
509
507
511
508
511
514
515
520
518
515
519
521
520
524
561
2235
2800
3130
3373
3517
3607
3649
3659
3668
3669
3673
3673
3671
3665
3670
3667
3672
3673
3672
3665
3680
3672
3674
3674
3675
3682
3672
3672
3671
3674
3671
3679
3669
3669
3671
3674
3670
3669
3671
3668
3666
3666
3671
3668
3670
3667
3663
3669
3665
3665
3673
3673
3669
3668
3666
3667
3658
3670
3667
3668
3666
3669
3661
3673
3667
3664
3666
3657
3669
3665
3665
3663
3663
3660
3665
3662
3664
3666
3664
3664
3665
3668
3662
3657
3663
3664
3661
3664
3664
3661
3661
3663
3663
3658
3658
3667
3661
3660
3659
3660
3659
3659
3658
3659
3658
3657
3664
3663
3660
3662
3655
3660
3659
3661
3663
3658
3659
3656
3656
3652
3655
3655
3656
3656
3666
3655
3656
3651
3655
3660
3654
3655
3653
3656
3659
3656
3662
3652
3658
3656
3654
3657
3657
3655
3655
3650
3652
3661
3652
3650
3656
3653
3660
3650
3652
3650
3652
3649
3650
3650
3650
3656
3654
3653
3653
3647
3656
3650
3652
3653
3656
3650
3652
3650
3650
3651
3649
3646
3647
3649
3648
3648
3645
3648
3645
3652
3647
3650
3650
3645
3653
3644
3647
3644
3653
3650
3645
3647
3648
3653
3649
3648
3647
3646
3652
3645
3649
3647
3649
3649
3652
3645
3644
3645
3645
3657
3643
3645
3649
3649
3649
3650
3644
3647
3637
3649
3646
3648
3644
3644
3642
3655
3642
3647
3644
3636
3643
3643
3646
3635
3648
3643
3646
3647
3641
3644
3632
3638
3637
3640
3644
3642
3644
3637
3645
3643
3645
3642
3640
3641
3644
3629
3640
3644
3639
3641
3640
3641
3631
3649
3637
3639
3640
3635
3645
3646
3640
3641
3642
3638
3639
3639
3639
3637
3636
3635
3639
3639
3638
3639
3638
3635
3636
3637
3643
3638
3634
3642
3636
3636
3634
3638
3632
3638
3633
3627
3627
3641
3630
3632
3634
3629
3637
3634
3631
3628
3627
3630
3628
3628
3630
3628
3628
3632
3628
3625
3623
3624
3625
3624
3621
3623
3622
3620
3620
3620
3616
3615
3620
3618
3622
3613
3619
3615
3615
3626
3613
3618
3615
3615
3612
3619
3618
3619
3616
3616
3616
3616
3620
3618
3615
3613
3613
3614
3611
3607
3615
3613
3613
3611
3612
3610
3613
3614
3608
3607
3610
3606
3608
3611
3602
3608
3615
3603
3619
3610
3611
3610
3611
3613
3610
3613
3606
3613
3609
3609
3607
3610
3607
3611
3608
3603
3601
3586
3544
3354
2451
531
527
525
523
522
522
522
521
519
520
519
518
516
519
515
514
519
520
518
518
519
519
519
514
518
516
514
517
518
517
517
516
514
517
515
515
515
512
513
510
512
512
512
510
510
509
511
510
509
509
510
507
506
507
508
505
504
505
504
505
504
501
504
504
503
504
503
502
501
501
500
502
503
504
503
504
503
506
506
505
508
508
505
506
507
510
509
512
512
513
514
517
518
519
518
525
756
920
968
1043
1121
1023
1038
1126
1077
1024
1131
1069
1202
937
1026
1105
1124
1029
1140
1140
964
1175
1115
1100
1009
1166
966
1160
998
1033
1230
1188
1102
1071
1024
1133
1126
1097
1060
974
1156
985
1175
1011
1155
969
922
1058
1150
1120
1065
1049
1028
1059
1042
977
1200
1035
1087
1007
1134
1083
912
912
995
1146
1098
1089
1070
1077
1097
1033
1040
1079
1123
1036
1025
1092
1208
967
966
925
1194
1101
1083
1064
1163
1173
1184
1060
1042
975
1114
1133
1126
1087
1018
954
1081
1115
951
1149
999
1124
1029
1108
1007
1144
1023
1027
1132
987
1143
1025
991
1122
1161
1149
1158
1145
1094
1025
1007
1128
1028
1081
1079
1088
1035
1057
1090
1038
1064
1084
1015
1040
1092
971
1124
1185
1108
1196
1145
1001
1046
1086
1032
1006
1107
892
868
1071
1085
1022
1028
972
1065
1150
1159
990
1030
1020
1000
973
878
1031
1058
981
952
1002
1001
1012
1002
952
743
889
920
948
926
925
936
953
917
949
920
1180
936
893
932
841
802
787
672
525
526
525
525
526
526
520
519
524
525
525
522
524
524
524
525
522
523
524
521
523
522
524
520
522
525
524
523
523
524
523
520
522
524
522
522
522
522
522
522
522
522
524
522
521
522
522
522
522
522
523
524
521
522
522
522
521
519
522
521
521
522
520
521
520
519
518
522
523
521
522
522
520
519
522
519
520
522
523
522
522
518
522
520
521
520
521
520
522
521
519
521
522
520
521
522
520
521
519
519
519
521
521
519
520
520
519
521
520
517
520
521
518
519
520
522
518
520
520
520
520
519
519
519
521
520
520
520
519
519
520
521
518
521
520
521
519
522
519
519
521
521
519
521
521
521
520
518
520
520
518
517
520
521
518
518
521
520
520
519
521
520
520
520
514
519
517
519
519
521
517
521
524
521
519
520
520
520
521
520
523
520
520
519
518
520
520
521
518
520
520
522
520
521
521
520
520
522
523
522
520
520
521
520
517
519
521
520
519
520
517
520
519
520
520
518
516
520
517
518
519
520
522
520
519
519
518
520
520
519
522
520
520
520
524
525
524
523
523
524
523
524
527
524
524
524
525
524
524
524
526
524
523
523
525
525
525
524
526
522
524
525
522
524
524
526
524
524
522
524
519
525
524
525
524
522
524
526
524
524
524
524
522
524
524
521
524
520
523
520
522
524
523
522
522
523
523
522
523
520
522
524
524
521
521
522
523
522
520
522
521
522
520
521
522
520
520
521
525
522
522
523
520
522
523
522
520
522
520
523
521
520
523
522
519
519
521
521
518
522
522
522
522
524
522
522
522
522
521
522
522
522
521
517
520
522
521
521
521
521
521
520
521
521
519
522
512
519
521
522
520
521
521
521
521
521
521
521
521
520
520
521
520
519
521
520
518
521
521
520
520
520
521
519
519
519
518
519
521
518
521
519
521
519
518
519
519
520
519
517
517
519
519
520
520
517
516
520
520
520
519
521
519
520
522
520
520
521
520
521
518
522
519
521
520
515
520
520
521
521
519
518
521
520
521
521
518
520
520
520
518
524
519
521
520
521
521
520
520
519
519
519
519
519
520
520
520
519
525
519
520
519
520
520
519
518
519
519
518
519
520
517
520
518
523
519
520
520
520
522
519
518
520
518
519
520
520
518
516
519
516
520
518
519
519
521
518
514
520
521
520
519
520
519
518
519
518
517
517
519
515
517
518
516
517
518
519
518
518
518
517
519
518
518
518
516
514
516
517
515
517
517
517
519
518
516
516
515
515
515
520
519
517
516
518
513
516
515
515
519
518
519
518
519
519
518
515
517
518
520
518
517
518
517
518
518
518
519
519
519
518
516
521
519
522
518
519
518
519
518
519
520
519
519
519
519
516
520
519
516
519
519
521
519
519
518
514
518
518
518
521
518
517
520
520
519
518
517
520
520
520
519
519
520
519
519
520
518
520
517
520
520
516
519
519
522
521
520
520
519
520
520
518
517
519
519
520
516
520
520
520
521
519
521
519
519
519
522
520
520
520
518
519
520
519
521
520
520
521
521
522
518
521
518
522
521
521
522
522
520
521
518
521
521
522
522
522
520
520
518
520
521
519
521
521
521
520
518
521
521
521
520
523
520
521
522
520
521
518
519
521
520
521
521
521
521
520
521
521
521
519
522
517
520
520
520
521
522
521
523
520
521
519
520
520
522
521
520
522
521
521
521
523
521
521
521
521
520
522
518
521
521
522
519
521
521
520
521
523
519
521
520
518
520
522
518
517
522
521
520
521
521
521
518
521
519
520
518
521
521
519
521
518
520
517
520
521
521
522
519
521
520
521
523
524
520
521
522
523
519
521
522
520
519
521
521
518
521
521
522
522
522
521
521
521
519
521
522
520
521
520
521
523
521
521
519
521
521
520
518
521
521
520
521
522
522
520
521
520
520
518
519
521
521
521
521
518
520
523
518
520
521
521
520
521
520
518
523
520
524
522
521
521
521
521
520
519
521
520
521
521
521
524
521
521
520
520
521
521
522
521
520
521
520
519
522
520
521
521
521
523
521
521
520
521
522
521
521
521
521
521
521
521
521
523
519
520
520
521
521
520
521
524
521
521
520
520
521
520
521
522
520
521
521
521
521
521
520
521
519
522
520
518
521
522
523
521
521
521
520
521
518
521
522
521
522
521
520
520
521
521
522
517
521
521
518
521
522
521
523
522
520
523
519
521
523
521
519
521
520
520
521
520
520
521
520
522
521
523
521
523
523
522
517
520
520
518
521
520
523
519
521
522
517
519
522
522
520
522
523
521
515
521
520
521
519
523
521
520
521
518
521
521
521
520
522
522
522
520
521
521
522
521
521
519
521
522
521
521
523
520
522
521
520
521
520
524
523
521
521
521
521
518
521
522
521
521
520
520
521
521
521
521
521
520
521
522
521
521
519
518
517
520
521
521
523
521
519
520
522
519
521
523
521
520
521
521
521
521
519
520
521
522
521
521
521
521
521
521
521
521
521
520
522
521
521
521
520
521
521
521
520
519
521
522
520
521
517
521
522
520
519
519
521
523
521
518
522
521
522
520
521
521
522
521
520
521
520
522
521
522
521
521
522
521
520
521
519
521
521
522
522
522
523
519
520
522
521
520
521
521
522
521
521
519
521
523
523
520
522
517
522
522
521
522
521
522
521
521
522
520
521
521
522
521
522
520
521
520
524
519
521
521
522
523
524
522
522
522
522
522
518
521
519
519
521
520
519
521
520
523
521
521
521
521
521
518
521
521
522
523
520
522
525
522
521
518
521
524
522
521
523
522
521
522
521
521
521
522
521
524
521
520
521
521
524
521
521
521
522
520
519
522
521
519
520
521
522
523
520
520
522
521
521
521
521
520
523
520
521
520
521
521
523
520
521
522
517
522
522
523
517
522
524
521
521
521
522
520
523
521
521
522
524
522
522
520
521
522
523
520
522
521
522
521
521
519
522
521
523
521
523
523
520
521
519
522
521
523
519
520
517
521
518
522
520
522
519
522
519
522
519
520
523
521
522
520
521
520
521
522
523
519
518
521
521
521
519
521
521
522
522
521
522
524
520
521
521
522
520
521
522
520
521
522
521
521
521
521
522
520
522
522
522
520
521
521
522
520
522
521
520
520
522
522
521
520
521
523
523
523
522
522
520
520
522
520
522
521
521
521
517
521
521
521
522
522
522
520
522
521
521
522
521
521
522
521
521
523
521
522
522
522
521
519
522
520
521
523
521
519
521
520
522
521
521
520
522
521
522
521
522
521
520
520
519
522
520
521
522
522
521
521
523
523
523
521
521
522
524
523
521
520
521
521
522
523
519
520
523
521
521
521
521
521
523
520
519
522
523
521
522
522
520
521
519
522
519
521
520
522
521
520
520
519
521
521
521
523
522
521
522
522
521
518
521
522
522
521
521
520
518
522
521
521
522
520
520
522
521
522
521
521
521
519
522
521
521
521
521
522
522
521
521
521
520
519
522
519
522
521
521
521
520
522
521
521
521
520
521
520
522
522
520
521
522
521
520
520
521
522
522
519
521
521
521
519
518
521
521
521
522
523
515
522
521
523
521
521
519
522
521
520
522
521
523
521
519
519
520
526
522
521
521
518
523
522
518
522
522
522
522
518
517
519
520
524
522
520
521
522
519
521
521
520
522
519
521
522
521
522
523
521
521
519
522
522
521
523
521
522
522
519
520
521
521
522
521
522
520
519
516
521
522
520
523
521
522
519
520
521
521
519
520
522
522
521
520
522
519
522
521
520
521
519
517
523
519
516
521
522
519
521
523
520
523
521
522
522
522
523
521
521
522
521
521
522
520
521
520
522
522
520
521
522
519
521
522
517
522
521
520
522
523
520
522
522
519
521
521
521
520
524
522
522
521
522
522
522
523
520
521
522
522
521
524
525
523
520
521
521
522
520
520
522
521
521
521
521
522
520
521
522
521
522
524
520
521
522
523
519
519
522
521
522
523
523
519
522
522
522
521
521
522
521
520
519
523
522
521
521
522
521
522
525
521
521
522
521
520
520
522
522
523
521
520
523
522
521
520
522
523
521
520
523
521
522
522
520
521
522
520
522
520
522
524
521
521
517
521
521
519
521
519
522
521
521
520
522
522
522
520
522
519
519
518
523
518
521
521
521
522
522
522
519
522
519
522
522
523
521
522
522
523
519
522
523
521
522
516
523
519
521
521
523
523
522
522
522
521
519
521
522
522
521
519
522
523
521
521
520
522
518
522
521
521
520
519
522
522
522
522
524
522
520
520
522
521
520
521
522
523
519
521
520
522
520
521
523
522
522
522
521
522
523
524
516
522
523
523
522
522
523
522
522
523
524
521
524
523
523
522
523
523
521
523
523
523
524
523
523
522
520
525
523
523
523
522
523
523
521
524
523
522
523
520
517
522
523
523
521
522
519
524
523
522
521
522
523
523
522
520
522
522
525
524
523
523
520
522
518
523
522
523
525
524
524
521
520
520
523
523
524
523
523
519
522
521
523
523
523
523
521
519
523
520
523
524
523
523
522
523
522
522
520
524
523
521
522
521
517
522
522
523
523
522
523
522
519
522
519
522
522
522
520
521
522
520
518
519
523
519
520
522
520
522
522
523
521
521
522
522
521
521
520
524
524
523
518
523
520
522
520
517
524
523
522
521
523
514
523
522
523
522
522
522
522
519
522
523
523
522
521
521
521
523
520
524
524
523
522
519
522
522
520
524
525
529
522
522
521
522
521
525
521
523
523
524
519
522
523
523
519
520
520
521
520
520
523
523
523
523
523
522
519
522
523
523
521
524
524
521
522
521
523
519
522
524
522
523
523
523
523
523
523
523
522
519
522
524
523
524
521
525
522
523
521
522
521
524
523
524
522
524
522
520
524
525
526
522
521
525
524
523
523
524
524
524
521
523
524
523
524
524
525
525
523
524
523
524
524
524
524
522
522
526
525
524
522
522
526
525
523
525
524
525
524
524
523
524
521
524
525
524
524
523
526
522
527
526
524
524
522
526
524
520
523
524
523
523
523
523
521
522
521
521
525
524
524
525
522
523
522
524
524
524
523
524
523
522
527
525
523
523
522
524
524
524
520
523
522
524
523
524
521
524
524
523
525
524
520
524
523
525
524
525
522
523
523
523
521
524
523
521
522
523
519
523
524
523
522
524
522
523
522
523
522
524
519
524
524
524
523
525
524
523
520
524
525
522
520
522
524
520
524
523
523
522
523
523
525
522
520
524
523
522
524
520
522
521
524
523
523
521
522
523
519
525
523
521
523
524
521
523
521
523
525
523
523
524
523
525
523
523
523
522
524
521
523
518
524
523
524
522
521
520
522
520
523
526
522
524
522
524
524
524
523
524
523
523
523
524
522
523
523
522
523
522
521
522
523
522
524
521
523
525
521
522
523
523
523
522
522
520
523
524
522
522
524
523
523
524
521
524
521
522
523
521
523
524
523
522
522
522
523
522
523
523
521
522
522
525
523
523
522
525
523
524
523
522
523
523
523
522
523
522
523
522
523
524
523
520
523
523
520
523
523
523
523
521
522
522
523
520
523
521
524
524
523
522
523
523
523
521
522
523
523
520
523
521
522
522
522
523
519
519
523
522
523
523
522
521
523
522
523
522
522
522
522
523
522
523
522
523
523
519
523
524
522
523
521
520
524
521
524
524
523
524
524
520
524
523
523
523
522
521
522
520
523
523
523
516
523
520
519
522
523
522
525
523
520
522
521
523
521
523
522
525
520
522
522
521
524
522
522
521
522
518
522
522
524
523
523
522
521
524
522
523
521
522
523
522
523
523
522
523
522
523
518
523
520
522
522
523
523
523
522
524
523
523
523
526
522
522
524
519
523
523
522
523
522
520
524
523
521
519
519
523
521
523
523
522
523
523
523
523
523
522
523
523
521
523
522
521
523
519
521
522
523
521
523
524
523
523
522
523
521
521
522
521
522
519
523
522
521
522
522
522
523
521
520
522
520
516
522
522
521
520
526
520
522
524
523
522
522
521
521
523
519
522
522
522
523
522
525
522
522
522
521
522
522
522
522
522
523
522
522
522
523
520
521
522
522
523
522
521
523
522
520
521
522
522
522
522
522
524
520
522
521
521
524
522
521
521
521
522
520
522
520
522
522
522
522
523
522
523
522
521
522
522
522
522
522
522
522
521
523
524
521
522
522
524
523
519
522
523
522
522
521
524
522
522
523
522
523
522
520
523
522
523
523
522
523
522
520
523
522
522
522
521
521
522
522
522
522
522
522
524
521
522
524
522
524
520
525
521
521
522
522
522
523
522
523
522
521
522
521
518
522
521
521
518
522
523
522
521
523
522
521
522
523
522
524
521
522
523
524
523
519
520
523
523
522
522
522
522
521
520
522
522
520
522
522
523
522
521
522
521
521
523
523
523
521
522
522
522
522
520
525
522
522
523
525
522
520
521
522
522
522
520
522
522
522
524
518
523
522
521
521
521
522
522
523
522
523
522
521
523
523
519
521
520
522
522
522
524
523
522
519
521
522
522
521
522
523
523
522
522
523
520
522
523
522
521
524
521
519
523
522
522
523
522
520
521
524
523
523
523
522
521
521
521
524
521
522
522
521
523
522
521
523
522
520
522
520
519
519
525
520
523
521
520
522
522
522
521
524
522
522
522
521
522
522
521
519
523
523
522
522
522
523
522
521
524
521
522
523
523
522
517
522
522
522
520
524
522
520
522
522
521
520
521
523
523
523
522
519
522
523
523
522
522
522
522
522
522
523
523
520
522
522
523
522
525
522
524
522
518
522
522
520
523
521
523
522
522
519
522
522
522
522
520
522
524
519
522
522
521
520
524
522
522
522
520
522
522
520
521
521
521
521
522
522
521
522
520
522
522
522
522
521
521
522
522
517
521
521
521
521
523
521
521
518
520
520
519
521
519
523
521
521
521
519
522
520
521
521
518
520
521
520
521
520
523
522
521
520
522
521
521
523
520
523
521
520
522
524
522
522
517
519
516
522
521
520
522
521
519
521
522
519
522
521
523
522
522
525
522
521
523
523
521
522
522
523
522
522
524
518
521
522
520
520
517
522
522
520
524
523
522
522
522
522
522
522
522
523
521
522
524
523
522
519
519
517
521
520
522
522
522
524
522
522
522
520
518
522
522
522
519
523
522
522
518
522
521
523
521
522
523
523
522
519
523
523
522
524
522
522
524
522
522
523
522
523
521
519
522
522
523
521
524
523
521
520
524
520
522
518
521
522
521
520
524
523
520
522
521
521
520
524
523
526
522
521
518
523
521
522
522
522
521
522
524
523
522
522
522
520
522
522
524
523
524
522
520
522
524
523
523
523
522
522
520
523
523
523
522
521
521
522
522
521
522
522
524
523
522
523
520
523
522
523
522
525
523
523
518
523
524
523
522
524
523
519
522
521
522
523
519
522
523
522
523
524
521
521
524
523
523
521
522
525
524
523
523
522
524
523
523
523
524
523
523
526
526
524
524
524
525
523
519
524
524
522
524
523
522
525
524
525
525
522
525
524
520
524
520
523
524
522
521
523
523
520
523
520
524
522
524
524
524
523
523
523
523
525
523
522
523
523
523
521
523
522
523
523
523
524
523
523
524
525
520
524
524
524
522
523
524
523
523
523
523
523
522
523
522
521
522
525
521
521
519
521
521
523
523
522
521
518
520
522
520
521
521
524
523
520
519
523
523
522
522
525
522
523
524
525
522
526
523
521
517
522
523
524
521
523
523
523
526
523
523
522
522
522
522
524
519
523
522
524
524
522
524
525
524
524
523
525
521
522
523
526
522
517
522
521
524
520
524
523
524
522
523
523
521
524
521
523
522
522
523
523
521
522
522
524
522
520
523
524
520
524
523
521
521
522
524
522
522
522
520
523
523
522
523
521
521
523
522
523
524
523
522
522
522
521
522
521
524
523
523
523
522
525
522
520
524
523
523
523
523
523
523
523
523
521
524
523
522
521
520
524
523
524
522
524
524
524
520
521
523
523
523
520
523
522
523
521
522
522
524
522
523
523
523
523
522
521
524
520
522
518
522
522
524
523
523
523
523
522
519
523
520
522
523
522
523
524
523
522
524
522
522
523
522
523
522
524
521
520
522
523
523
522
522
523
522
521
523
519
523
522
522
523
521
521
521
520
519
519
520
521
521
521
522
520
518
521
523
523
520
520
523
523
523
521
522
521
523
523
520
522
524
522
522
522
523
524
524
524
521
523
518
