494
495
493
491
493
491
502
493
496
498
496
497
496
494
491
491
492
491
491
495
496
502
496
496
491
491
491
490
491
491
498
496
496
497
512
490
491
491
492
491
491
496
495
497
496
496
491
491
490
490
492
492
495
496
497
496
496
496
492
492
491
491
442
495
495
504
496
493
490
490
494
491
491
489
495
496
496
495
496
492
495
491
492
491
491
496
496
496
498
498
495
492
493
490
491
393
497
496
496
496
495
492
491
491
491
492
490
496
496
496
497
492
492
491
491
495
492
492
487
496
501
496
477
497
490
492
492
491
442
494
497
496
492
496
496
490
491
491
490
442
498
496
494
497
496
492
492
492
490
492
489
496
496
497
496
496
492
490
490
491
491
492
496
496
497
522
495
491
492
489
491
491
492
498
496
496
496
496
492
491
491
492
491
492
496
498
496
498
495
478
490
490
490
491
489
497
497
496
464
496
492
491
490
497
492
491
496
496
497
497
495
491
495
494
492
491
490
495
496
496
496
497
492
493
492
490
491
491
495
495
497
497
496
508
490
492
491
490
492
497
497
496
504
501
465
491
491
492
492
489
496
496
497
514
496
490
483
489
491
492
487
496
496
496
497
495
491
492
491
491
492
489
496
496
496
497
496
492
492
492
492
477
490
496
496
496
497
480
490
494
491
495
491
492
491
496
500
467
494
492
492
491
491
491
491
498
496
509
496
496
492
491
490
490
492
491
496
495
497
496
497
491
492
490
492
490
490
496
496
496
495
496
498
491
491
496
491
492
497
487
495
496
494
491
492
491
491
492
491
475
496
496
496
488
491
492
492
491
491
491
496
504
506
496
485
493
492
494
490
491
491
494
491
496
496
495
493
491
491
492
491
491
496
495
497
496
496
491
492
495
491
491
491
496
496
497
496
496
491
490
488
490
498
491
496
497
496
495
496
490
490
492
494
490
491
496
496
496
496
494
492
491
503
490
490
489
496
495
500
502
496
493
492
492
491
491
492
497
497
496
496
499
495
491
495
491
491
491
496
486
494
496
496
492
491
491
491
492
491
496
496
496
496
495
506
491
492
492
490
493
505
495
496
495
497
494
490
491
491
491
441
496
495
496
495
496
477
491
491
490
464
487
496
494
496
496
496
484
491
492
493
491
490
496
497
496
494
496
492
491
490
493
491
491
482
497
496
476
493
493
491
492
491
491
491
496
495
498
497
496
493
493
491
491
492
490
496
496
504
496
495
493
491
491
491
492
491
496
495
494
497
497
498
492
490
496
491
442
496
494
496
496
497
492
490
495
491
491
491
495
496
494
482
498
492
506
490
496
491
492
495
488
495
496
476
489
492
491
492
491
491
496
496
497
495
495
502
491
490
491
492
492
497
496
496
497
504
480
489
498
491
492
442
502
497
485
496
496
492
508
491
489
491
492
497
496
486
494
496
494
492
491
492
492
492
496
494
496
496
495
492
491
491
492
492
491
468
497
496
496
496
491
491
489
494
493
491
495
498
497
496
495
496
492
488
492
491
439
497
497
495
497
496
489
496
491
512
491
490
493
496
496
495
496
504
490
491
474
491
490
480
502
496
498
496
492
491
492
490
491
489
497
501
496
497
496
490
491
491
491
487
491
462
496
496
495
496
492
492
492
491
490
490
495
496
496
497
496
492
492
491
491
490
491
497
496
499
496
496
464
491
491
490
483
487
495
495
496
515
496
501
491
491
492
490
488
506
497
496
496
498
492
493
490
491
491
493
496
497
502
495
495
492
490
490
490
491
491
496
496
497
495
496
492
491
491
480
490
490
496
495
495
496
496
478
491
491
490
492
489
496
495
495
484
497
490
491
469
491
491
488
496
496
495
487
496
492
490
491
492
492
490
497
497
495
475
496
493
491
491
491
491
489
496
495
496
495
495
491
492
491
494
492
487
497
497
496
485
497
492
491
491
482
492
491
496
495
496
496
497
491
491
491
491
492
491
496
495
495
496
496
492
491
495
491
492
492
496
497
496
496
496
492
492
491
498
490
491
496
499
497
495
496
491
491
491
493
491
491
497
496
498
496
496
492
490
491
490
491
491
496
482
496
497
495
499
491
491
490
491
492
509
495
497
497
507
491
491
491
495
492
491
496
496
496
493
495
491
491
492
490
490
485
497
496
494
496
495
496
491
491
491
489
392
496
496
496
496
496
495
493
491
490
491
442
480
496
495
496
496
494
490
496
490
492
491
496
496
496
496
497
493
492
490
491
492
491
495
497
496
496
496
492
491
490
494
491
491
497
496
494
496
495
492
495
490
491
492
491
497
496
495
496
496
492
491
490
491
491
490
496
494
494
496
496
491
489
479
490
492
489
496
495
496
497
497
491
491
491
495
491
488
496
496
496
496
496
493
454
491
491
495
487
512
497
494
496
497
493
491
499
494
491
490
497
496
497
491
496
492
503
494
491
495
492
498
495
497
495
496
492
491
491
491
490
491
495
500
495
496
492
493
491
492
492
492
491
497
496
496
496
496
493
493
489
491
491
491
495
494
494
496
498
491
491
491
492
492
492
495
495
496
496
496
492
489
490
491
493
491
498
496
496
495
495
491
492
492
492
492
491
496
495
496
497
501
491
509
491
491
490
494
491
496
495
495
497
486
492
491
491
495
492
496
496
497
494
498
487
491
491
493
501
492
494
496
496
495
498
492
491
491
491
493
491
497
496
498
496
495
492
492
491
491
492
490
496
496
497
495
496
498
491
496
491
491
492
495
496
496
496
500
492
491
491
491
491
490
498
498
495
496
496
491
492
490
492
491
491
496
496
496
496
495
474
491
491
507
491
489
495
495
495
496
496
499
491
491
491
495
493
496
495
494
497
512
492
490
490
494
491
491
496
496
499
496
497
496
491
491
492
490
442
496
494
497
496
496
491
491
490
492
490
489
496
500
497
496
496
491
491
492
488
491
491
496
496
496
495
496
495
491
489
493
490
492
506
495
496
509
497
491
491
490
492
491
492
496
496
486
486
497
492
491
501
491
492
490
496
495
496
499
497
490
491
482
476
492
488
496
496
497
497
495
491
490
506
491
491
493
496
497
496
497
497
491
495
490
491
491
491
496
495
496
497
496
493
492
490
492
491
491
497
496
496
496
496
490
491
492
493
491
492
497
495
496
496
496
471
491
491
491
491
489
496
498
496
495
495
492
490
492
491
489
490
496
496
496
495
496
493
491
491
493
491
491
497
496
497
496
497
492
491
491
491
489
490
497
496
496
491
494
493
498
491
491
490
492
507
496
496
495
489
495
492
491
492
491
491
495
496
496
496
508
492
491
490
489
491
491
496
495
498
495
502
491
492
491
491
491
491
495
496
496
496
484
491
489
491
490
492
492
494
496
499
505
493
493
492
491
490
491
488
496
496
495
497
497
464
492
491
493
495
488
499
496
497
497
496
491
491
491
491
491
490
500
496
489
499
503
491
491
491
491
491
492
496
495
496
496
495
492
492
490
493
491
490
495
496
495
496
496
496
491
492
491
491
442
496
497
495
495
496
481
491
491
492
491
490
496
495
497
496
496
491
491
491
490
492
491
507
496
497
462
512
492
491
491
492
493
491
496
496
496
509
495
491
491
491
491
498
488
496
495
497
496
503
495
478
491
492
490
490
496
496
496
496
496
492
491
491
492
491
491
495
500
496
497
496
494
492
490
491
491
491
497
495
497
495
503
494
503
490
491
492
492
497
496
496
496
496
493
491
497
491
490
492
481
496
494
496
499
492
490
492
491
492
490
496
495
496
503
496
509
490
479
491
490
491
496
495
496
496
496
491
493
492
492
491
493
496
496
498
495
506
491
491
491
491
491
489
495
496
481
496
504
492
491
491
493
491
491
495
496
496
496
489
489
489
491
491
481
489
496
495
495
496
497
490
495
491
494
491
491
496
496
496
496
496
491
491
491
490
490
490
496
489
496
495
490
496
491
493
492
491
490
496
496
497
498
496
507
491
477
491
491
490
502
487
495
496
496
492
491
492
491
491
490
496
496
496
495
486
492
493
490
490
491
491
496
496
488
497
496
491
490
491
490
491
491
495
496
496
496
496
491
492
491
492
491
491
496
496
496
495
496
491
491
491
487
491
490
496
477
495
496
496
496
492
499
495
490
443
497
497
496
488
496
495
490
491
493
491
491
494
504
496
496
495
491
491
492
491
492
491
497
495
496
495
502
491
491
499
490
491
491
496
496
498
483
495
493
490
492
504
491
491
496
497
496
497
496
490
491
479
491
491
489
496
496
496
496
485
492
491
491
493
492
491
496
508
495
499
496
492
490
490
491
492
491
496
496
496
495
496
498
479
485
479
491
488
495
495
495
496
496
496
492
490
492
491
443
496
496
495
498
496
492
491
492
491
491
491
499
495
495
497
495
497
491
491
491
491
441
496
495
506
499
496
491
475
492
491
492
489
496
479
496
496
494
492
496
491
494
492
490
487
496
496
467
497
496
490
492
491
492
490
496
496
497
495
494
496
491
477
491
492
442
496
497
496
496
496
483
491
492
492
491
490
496
495
490
501
503
492
490
499
490
492
492
496
496
494
496
497
491
491
490
491
491
491
496
496
487
496
496
491
491
496
491
491
489
496
494
497
496
496
490
491
491
477
506
491
494
486
496
496
497
491
490
492
490
491
491
495
496
496
484
497
491
491
495
492
492
491
500
480
496
492
495
495
492
493
491
493
442
494
496
496
496
494
497
491
488
491
502
442
496
496
496
496
497
464
492
494
493
492
489
505
496
490
497
501
492
492
492
491
489
491
496
497
496
496
496
492
491
508
491
494
491
495
496
496
496
489
490
490
490
490
490
490
496
496
496
495
496
492
492
491
491
491
491
497
498
497
494
495
491
492
486
482
490
488
496
495
496
496
496
491
490
491
491
489
491
496
497
496
495
496
505
491
481
491
491
491
492
496
495
497
496
491
491
489
491
495
492
491
495
496
496
496
491
491
491
490
493
489
496
472
487
496
495
493
490
491
490
490
491
495
496
496
494
495
503
491
491
492
491
490
495
491
495
497
497
492
494
491
497
491
493
497
495
496
496
495
492
491
491
491
482
489
496
496
496
496
495
495
491
491
491
488
490
497
495
496
496
496
491
491
496
492
490
492
496
489
496
496
495
491
491
494
491
491
492
496
499
495
496
476
491
491
490
492
490
491
491
495
498
508
496
492
492
491
491
490
490
496
499
479
496
496
494
492
490
491
492
491
496
496
496
496
496
492
494
491
490
491
491
498
496
496
496
495
496
491
491
491
491
441
494
496
496
493
496
491
491
491
491
509
493
497
495
497
497
496
493
490
491
503
488
491
497
507
497
496
496
493
490
491
492
490
491
497
496
495
496
496
492
491
492
491
490
490
492
495
496
496
484
484
492
491
494
492
490
496
496
500
496
495
491
476
491
484
491
489
497
497
496
496
496
472
498
494
491
491
393
496
497
495
497
494
496
490
492
492
491
492
495
495
496
497
496
491
492
492
491
492
491
492
495
494
495
495
493
491
492
490
490
490
496
503
496
495
496
491
492
493
490
490
491
496
496
504
495
496
492
486
490
490
490
490
495
496
496
497
489
496
490
491
491
491
443
496
496
496
495
497
491
491
491
491
491
491
492
496
512
497
496
491
491
490
490
492
491
496
496
495
496
497
496
490
491
491
498
492
496
496
496
509
495
489
491
491
490
491
490
495
496
495
496
489
492
492
491
492
491
490
498
496
497
507
497
490
491
491
494
491
490
499
496
496
495
495
492
491
475
491
491
489
482
497
495
496
501
491
491
490
490
491
491
494
496
496
496
496
490
491
491
491
493
491
495
499
495
496
497
492
493
491
490
462
488
495
496
497
495
497
495
491
490
506
492
492
490
496
512
496
496
492
491
494
492
492
491
496
495
496
494
496
492
491
491
489
490
491
496
494
500
496
497
492
491
477
491
491
489
496
489
497
498
496
492
491
490
491
492
487
496
496
501
496
495
491
492
491
491
489
491
494
496
460
512
496
490
492
493
491
490
488
501
498
496
496
496
492
491
491
491
491
490
497
496
496
496
496
492
491
491
490
492
491
500
496
495
494
497
493
491
454
491
492
487
496
495
496
495
497
490
491
492
490
491
491
496
512
500
495
497
495
490
491
491
492
491
496
496
496
496
496
495
491
491
491
490
393
496
496
496
496
496
491
492
491
493
491
491
496
496
496
495
495
493
496
491
491
491
491
496
496
496
496
496
491
482
492
491
490
490
495
496
497
497
496
492
494
490
491
491
491
496
497
497
496
496
490
491
491
491
491
490
497
496
479
495
495
496
492
492
492
491
442
480
494
496
496
495
492
495
491
490
491
492
492
482
497
495
495
496
491
491
491
486
441
496
497
496
496
494
492
492
491
490
492
491
496
496
496
496
496
491
479
491
491
491
489
495
497
491
495
462
494
493
489
491
492
491
495
496
498
488
497
490
491
491
491
491
490
496
496
497
492
496
496
499
489
494
492
443
496
496
494
496
488
491
491
477
493
491
489
495
497
497
499
496
492
492
491
491
492
487
497
495
496
496
495
499
478
491
491
490
489
496
496
496
497
496
495
491
491
498
490
491
497
497
496
495
496
491
491
491
494
492
492
496
498
496
496
495
513
491
491
491
491
491
496
496
493
487
496
492
491
494
496
491
492
496
495
496
495
493
490
492
498
490
489
491
496
496
494
498
497
491
492
492
492
490
491
495
512
496
496
496
489
487
491
492
491
491
491
497
494
497
496
492
491
490
479
490
489
496
498
496
495
496
464
492
490
491
493
488
496
496
496
496
497
496
491
498
491
491
492
515
497
498
496
496
508
491
491
491
492
492
496
496
496
492
496
487
492
491
491
491
490
496
497
495
496
496
496
494
490
491
492
442
496
498
496
490
498
490
491
491
492
491
492
496
483
496
495
496
494
491
474
492
492
490
496
496
496
496
496
474
491
490
491
490
442
496
496
499
496
496
490
489
491
491
491
491
500
496
501
499
496
495
491
491
491
494
490
495
496
496
494
495
493
490
491
490
491
491
496
502
494
495
497
491
491
491
490
485
488
496
498
496
496
463
491
491
491
491
491
491
497
498
496
496
495
496
490
492
491
491
443
494
505
496
495
512
504
505
491
491
492
494
495
496
496
496
496
492
491
491
491
490
491
496
497
496
496
496
492
492
499
491
466
488
496
501
495
495
500
498
492
494
489
477
391
496
496
503
494
493
482
490
488
491
490
490
495
497
462
495
496
477
491
491
491
491
489
496
496
496
501
496
493
491
491
492
466
489
497
498
496
496
497
491
488
491
490
490
490
496
496
495
496
495
496
490
491
491
491
392
497
496
496
496
497
492
491
491
492
496
489
496
496
496
508
496
494
491
490
490
490
491
495
495
495
496
495
494
491
490
467
492
488
496
494
495
496
496
490
490
487
494
490
490
481
486
497
496
496
491
492
491
491
491
491
496
496
496
496
498
497
480
491
491
491
491
496
496
495
496
497
491
491
491
494
492
491
496
496
494
508
497
492
491
491
491
490
489
495
497
500
495
494
491
508
507
487
492
493
495
495
499
496
495
493
491
499
490
492
490
496
496
496
496
496
493
492
492
491
490
491
496
496
497
495
495
492
498
491
491
491
490
498
496
492
503
494
495
489
491
490
509
493
498
497
496
494
496
492
491
490
491
492
491
496
495
496
496
496
491
492
492
491
491
491
496
496
464
476
498
491
493
492
492
482
490
496
495
496
496
477
493
495
491
492
493
492
495
496
496
497
496
480
490
491
492
471
488
495
504
497
496
496
491
491
496
491
491
491
495
495
496
496
496
489
491
490
492
491
489
497
496
474
497
497
491
490
492
491
491
491
498
496
494
495
495
480
491
491
506
491
441
485
496
495
497
496
492
496
493
492
489
492
497
496
501
497
496
492
491
498
490
491
493
494
496
495
496
496
503
485
478
491
491
490
495
496
497
497
497
493
490
483
491
491
490
496
496
496
496
493
495
491
495
491
490
491
496
497
497
496
496
507
491
490
493
490
442
496
495
498
496
501
492
491
492
484
482
489
497
500
496
494
496
492
491
491
492
492
490
496
507
497
502
494
497
491
491
495
492
490
495
490
491
496
495
495
491
491
490
491
491
496
496
496
496
496
491
492
495
491
491
493
496
495
504
507
496
497
492
492
491
491
442
499
496
495
497
496
492
491
492
490
491
491
505
496
497
495
495
492
491
490
491
491
490
509
496
497
496
496
498
492
489
491
492
492
496
499
496
496
496
490
491
492
491
491
490
496
495
495
496
496
491
495
491
492
493
492
495
496
496
495
496
492
491
490
491
491
491
496
496
496
496
495
491
492
491
491
493
491
496
496
495
496
496
491
491
492
493
490
491
497
496
495
496
496
491
492
491
493
489
491
496
480
497
501
495
495
492
491
491
498
491
496
496
490
497
495
496
489
490
496
494
492
496
496
496
495
495
493
472
505
493
493
491
501
508
496
495
495
490
491
495
492
491
490
496
496
498
496
497
491
491
497
492
492
492
495
501
496
496
497
497
491
491
490
492
442
495
496
496
495
496
493
491
503
493
492
495
493
496
496
496
496
492
491
479
491
491
489
497
496
509
496
496
496
495
491
491
491
442
497
496
495
496
496
472
491
490
488
492
489
496
495
495
496
496
501
494
490
464
492
489
496
495
494
478
496
491
492
496
490
494
492
496
496
499
497
497
491
491
491
491
492
489
501
496
496
497
494
492
491
491
492
490
491
498
496
496
496
496
488
483
491
505
491
493
471
495
496
494
495
495
477
491
490
491
440
495
496
497
491
496
491
490
491
490
492
487
496
495
495
466
495
493
491
490
491
491
488
496
496
484
501
497
492
490
491
492
491
491
490
501
496
496
496
493
492
492
492
501
492
501
507
496
495
503
494
492
491
493
491
491
496
496
497
499
497
496
491
491
492
490
491
497
496
495
497
495
491
491
491
484
491
490
496
496
496
496
496
496
492
492
490
491
492
497
496
495
496
472
490
491
491
491
491
491
496
497
497
496
496
492
490
491
490
491
491
496
504
485
495
494
491
492
499
492
490
492
496
495
496
496
496
491
491
492
492
492
491
499
501
496
497
496
496
491
492
490
489
440
496
496
509
496
495
492
491
491
493
491
493
497
496
496
494
495
490
484
491
490
491
488
495
496
496
496
496
492
492
492
492
481
489
497
495
497
496
496
491
490
491
492
490
490
496
496
496
497
495
493
492
491
501
491
492
496
495
497
473
488
491
491
489
491
491
491
495
496
496
497
496
491
490
492
497
492
491
496
496
495
496
497
495
491
490
490
491
441
497
496
496
497
496
491
492
491
491
491
491
496
496
496
496
497
492
491
494
492
491
489
499
497
493
496
495
490
491
491
492
490
490
496
497
495
495
504
491
490
491
492
490
491
495
505
496
494
496
493
491
492
491
494
492
496
496
495
496
512
492
492
491
491
491
490
496
501
498
494
496
492
491
490
491
492
491
496
496
496
496
497
492
490
491
492
491
491
496
496
497
496
496
492
491
496
492
506
492
488
497
496
495
503
496
490
492
490
491
492
496
498
496
497
496
491
491
491
492
491
491
496
481
509
496
495
491
491
490
492
491
489
497
495
496
496
496
493
490
491
494
491
492
495
496
496
475
495
493
492
490
491
491
491
496
496
496
495
496
493
492
491
489
491
491
495
497
496
495
502
492
491
493
492
491
489
496
496
496
495
496
493
493
492
491
491
491
496
496
496
495
494
491
480
454
490
489
486
496
503
496
496
502
491
491
492
491
492
492
496
496
495
496
495
494
490
490
492
492
491
496
496
495
496
500
496
496
489
491
490
443
496
497
496
496
497
496
491
491
483
491
490
496
507
496
495
495
492
491
491
492
490
491
496
498
495
496
496
495
490
490
491
493
442
495
485
496
496
496
488
491
491
491
491
490
496
496
496
508
497
492
490
490
492
491
491
496
487
495
512
496
508
490
491
491
504
494
496
496
496
496
496
488
493
469
491
491
488
500
496
497
496
496
492
491
492
493
491
492
496
481
495
495
495
492
491
491
492
490
489
496
490
496
496
496
493
492
491
490
505
492
495
499
495
495
496
490
492
491
491
492
491
497
496
496
496
495
495
491
490
491
480
490
495
494
496
497
495
493
491
491
491
491
491
501
497
495
497
496
499
491
482
478
491
489
495
477
496
495
496
492
492
490
492
496
491
496
497
496
501
494
491
492
489
492
491
493
497
500
496
509
495
492
493
492
491
492
492
496
496
496
496
501
494
490
491
491
490
491
496
512
496
497
466
493
492
491
490
492
492
495
496
496
471
495
496
492
491
491
491
442
502
498
496
515
495
490
491
494
504
492
492
494
496
495
501
496
490
492
500
491
491
493
484
496
497
497
477
489
490
493
491
494
490
496
496
495
496
495
492
490
492
491
492
491
495
496
496
496
496
491
491
492
491
490
489
495
496
495
496
495
491
491
491
494
492
490
496
496
496
493
496
490
491
491
474
491
489
496
499
499
497
501
492
491
491
491
491
491
495
496
496
500
496
492
490
492
492
491
491
496
496
496
496
496
492
490
490
493
491
490
496
496
496
497
495
477
486
491
490
491
489
496
497
495
511
496
495
491
492
490
491
490
476
496
496
495
496
492
491
491
490
491
491
496
496
496
481
496
498
491
492
491
491
491
497
499
496
497
495
487
491
490
491
491
490
495
497
496
496
496
491
491
490
492
491
491
496
495
496
496
496
495
491
490
491
490
487
496
496
495
495
499
481
491
490
495
491
490
495
477
503
496
496
495
490
491
490
491
491
496
496
496
496
492
490
491
492
489
491
490
496
496
496
495
496
494
491
492
491
490
490
495
497
495
496
496
492
493
465
491
492
490
496
496
496
496
496
494
492
492
492
490
491
495
496
503
496
496
491
491
491
499
506
493
487
496
497
496
495
496
491
490
491
470
441
506
494
496
497
496
489
492
492
495
491
491
497
496
494
501
496
492
490
490
492
481
490
496
497
497
497
497
491
490
492
507
492
492
496
495
496
497
496
493
492
481
491
491
490
509
496
496
496
496
492
491
491
496
491
491
495
496
497
496
496
494
494
491
459
491
485
496
496
480
496
496
492
497
490
491
492
489
494
496
496
499
495
491
491
492
491
482
490
496
495
503
497
497
491
492
491
491
473
489
496
496
496
496
495
491
491
496
490
491
491
509
507
495
496
495
483
491
491
491
491
490
496
496
496
497
496
493
491
492
507
499
494
490
486
492
495
496
491
492
492
491
491
491
497
496
496
495
497
494
491
492
503
492
492
496
496
491
477
495
492
492
490
502
503
493
474
497
496
497
496
492
492
491
491
492
491
496
498
496
495
496
492
491
496
496
490
491
501
496
496
500
493
491
499
490
492
490
492
495
497
496
495
495
491
491
491
492
491
490
496
496
496
494
496
498
491
492
491
491
492
492
495
494
496
496
491
492
492
491
491
491
497
496
497
497
495
496
476
491
492
491
391
477
497
499
496
509
492
495
491
491
496
492
494
496
496
496
496
499
491
491
491
491
443
496
497
502
497
496
492
492
486
490
490
490
467
484
496
496
496
496
491
488
491
490
489
496
496
496
496
496
491
510
491
490
496
496
497
496
496
496
495
492
491
494
494
491
491
496
490
497
495
497
490
495
492
506
505
494
496
496
498
497
495
492
492
490
492
492
489
495
487
497
495
495
494
491
491
492
491
491
497
498
495
496
496
491
491
492
491
491
491
497
496
496
496
495
491
491
492
490
491
491
496
495
496
492
496
491
491
491
492
490
493
496
476
497
496
496
494
491
494
489
491
491
497
496
499
509
495
494
491
490
491
492
489
498
496
496
496
496
491
490
491
491
492
487
496
495
495
496
496
492
496
490
492
491
491
497
497
496
496
496
492
492
490
492
486
492
497
494
501
503
496
492
492
491
503
490
492
495
495
496
496
496
495
504
491
490
497
493
496
496
496
494
497
492
492
492
492
491
492
496
496
496
496
497
494
491
492
495
491
444
494
497
496
495
496
495
491
495
491
491
391
496
496
498
497
496
491
491
491
491
492
488
495
512
495
496
477
497
490
475
491
505
441
496
496
500
495
496
491
504
491
492
492
492
493
495
495
496
495
492
491
480
490
492
490
494
495
495
496
496
491
491
491
491
491
491
496
478
496
501
496
491
491
491
492
491
490
496
496
495
495
496
496
491
491
491
490
441
496
496
496
495
499
490
491
491
491
492
491
478
486
496
495
496
491
492
491
490
491
490
496
495
496
495
496
494
496
483
490
491
490
498
494
496
495
497
505
491
491
490
491
491
496
496
496
497
496
491
492
489
491
491
491
492
498
496
496
501
496
491
492
475
502
441
494
495
507
496
496
492
492
491
491
491
490
496
495
496
496
498
496
492
492
492
491
489
498
495
496
496
469
479
492
490
490
491
488
495
496
496
496
496
481
491
491
491
491
490
491
495
497
497
496
491
491
467
491
491
488
495
496
497
496
500
492
491
490
490
491
491
496
501
496
496
496
491
491
497
491
491
490
498
497
496
495
497
493
491
494
490
491
491
496
488
496
496
496
497
491
490
491
492
390
497
496
495
496
495
495
490
492
491
492
492
496
496
496
502
495
490
492
491
496
491
490
496
497
495
495
497
490
491
492
491
490
490
496
496
500
496
496
492
481
491
492
491
490
495
498
495
494
496
492
490
491
491
478
491
498
495
496
494
496
491
492
492
491
491
491
496
496
496
496
496
486
491
490
490
470
488
496
496
497
499
507
491
491
491
492
491
491
496
495
495
496
496
491
491
490
491
491
491
496
496
496
496
497
490
494
490
491
491
488
484
496
499
496
495
484
492
491
491
491
486
498
499
493
496
497
493
491
491
491
494
493
496
498
496
496
496
492
495
493
492
492
491
497
495
496
497
512
492
492
491
491
491
490
495
496
496
495
506
491
492
491
495
496
491
497
496
496
485
499
492
492
481
490
492
490
495
496
496
499
495
491
485
491
492
491
490
496
498
499
496
495
491
492
492
491
491
490
496
497
499
495
495
496
490
491
492
491
491
474
496
496
496
494
491
484
491
491
491
490
496
496
495
497
497
491
490
491
492
492
491
496
496
496
495
496
491
491
492
493
466
489
496
496
496
498
496
496
490
490
497
494
443
494
496
496
496
496
492
491
491
491
504
491
496
499
497
496
496
492
489
490
477
490
487
501
496
496
496
506
492
490
491
491
492
491
487
496
495
496
496
492
494
491
490
491
492
498
495
498
497
496
491
490
491
491
491
490
496
496
495
496
496
491
492
507
480
488
491
496
496
496
496
461
495
491
491
492
493
442
495
494
496
496
496
492
492
492
491
496
492
496
497
496
496
496
474
492
492
491
491
442
496
495
496
496
498
491
490
491
492
469
489
496
498
497
497
496
491
490
491
492
491
491
494
497
494
496
496
491
491
492
492
496
491
490
495
498
497
502
501
491
491
491
459
488
501
473
497
497
496
492
491
490
491
492
442
496
496
495
495
488
491
508
481
492
490
492
504
496
496
496
496
491
491
492
492
491
489
496
495
496
496
494
492
501
491
493
494
492
495
496
496
496
495
494
491
491
492
490
494
497
497
496
487
496
485
491
488
491
491
489
495
497
496
496
501
492
493
491
490
491
491
496
496
497
496
497
491
491
492
491
491
491
496
496
496
496
495
491
491
493
492
491
491
496
496
494
504
494
492
487
492
492
490
491
496
496
496
495
496
491
491
493
491
490
491
495
496
496
496
495
493
493
491
491
490
491
496
496
496
496
491
492
492
490
496
490
491
499
506
495
496
489
498
494
490
492
494
491
496
496
497
496
496
494
491
491
496
491
492
495
497
497
494
497
491
492
492
486
491
492
495
496
496
496
496
490
492
491
495
492
491
497
496
495
497
496
490
490
499
491
490
493
498
514
496
500
495
496
491
490
493
491
441
496
494
496
496
495
492
491
481
488
491
488
496
496
495
496
495
491
490
495
496
496
490
496
478
495
497
504
495
491
490
491
491
492
496
495
496
496
486
493
491
491
490
491
489
496
491
501
492
491
491
491
483
491
491
489
496
496
496
496
496
492
491
491
496
490
491
495
495
496
495
496
492
491
492
491
491
488
496
496
496
496
482
491
505
492
491
491
491
495
496
496
496
497
503
491
492
492
497
492
496
496
496
496
496
492
492
490
490
491
492
500
496
476
495
497
494
491
491
491
494
492
495
494
496
495
495
493
492
488
479
490
490
495
464
495
502
496
494
490
472
491
492
489
496
496
497
496
496
492
491
492
491
492
491
496
496
485
496
495
491
491
495
490
491
492
502
496
495
496
495
494
490
493
490
492
490
496
495
496
496
497
490
471
491
479
491
488
496
497
497
496
494
493
493
489
490
493
492
496
496
496
495
496
491
490
492
476
492
489
496
496
495
497
497
493
491
490
491
491
489
496
497
494
495
496
491
490
491
491
491
490
496
494
497
498
496
494
491
491
491
491
491
496
499
495
497
496
490
494
490
491
490
490
472
496
497
496
500
490
472
492
491
491
489
499
496
496
474
496
499
491
492
490
492
490
495
496
496
496
496
491
492
492
490
490
491
496
496
477
497
496
496
496
491
492
500
443
496
496
496
496
496
494
491
491
491
491
491
496
497
497
496
497
491
490
491
493
490
491
495
496
496
494
496
484
491
491
490
491
490
498
498
485
497
496
491
492
489
491
490
490
497
497
498
496
495
492
491
492
491
492
491
496
506
496
496
496
500
490
474
489
494
438
495
496
496
497
498
492
490
491
491
492
490
497
496
495
478
495
491
490
491
490
509
492
504
495
496
495
496
492
492
490
490
493
491
495
496
495
495
496
490
492
491
506
490
492
496
496
495
496
496
491
491
494
490
495
491
495
496
496
496
495
491
494
496
491
492
489
496
474
495
496
495
493
491
492
491
492
491
498
496
496
494
496
501
489
491
488
470
439
495
499
496
496
496
491
493
491
491
475
487
497
496
496
496
496
492
499
490
491
490
492
496
502
502
496
475
491
490
491
491
491
490
496
496
494
465
496
490
491
491
491
490
490
499
495
495
496
495
492
491
491
491
490
493
496
496
496
496
496
495
490
491
491
494
491
496
496
499
496
494
491
491
492
491
508
493
496
495
495
487
497
492
491
492
492
491
490
497
496
496
496
495
490
492
492
491
492
492
501
496
496
493
497
495
494
494
496
491
492
496
496
496
496
496
491
491
503
479
491
488
491
497
496
496
495
494
493
490
490
489
491
495
500
496
494
494
491
491
495
491
491
491
495
496
496
496
497
491
493
491
505
493
492
495
495
497
496
497
478
495
491
490
492
490
496
477
497
496
496
491
494
493
490
492
491
495
495
497
494
506
493
490
491
491
492
491
496
496
496
497
496
464
493
490
493
491
489
496
496
496
500
506
491
490
491
491
464
488
507
496
496
496
499
490
491
492
492
491
490
496
507
496
496
496
495
490
492
491
491
442
495
481
497
495
499
495
491
491
485
482
492
497
495
496
496
496
491
491
492
490
490
491
497
496
496
496
496
494
491
487
491
491
490
495
496
496
513
509
495
491
491
492
490
440
496
496
496
496
496
491
490
492
491
490
488
496
501
497
496
497
491
491
474
491
491
489
496
495
496
496
496
492
491
491
483
492
490
496
496
495
496
496
507
491
494
491
490
490
497
496
496
495
496
496
491
454
491
490
434
498
496
472
498
496
491
491
491
492
472
489
497
465
496
498
499
492
492
491
491
494
491
497
496
497
496
496
492
491
490
491
491
491
496
496
496
491
476
493
491
503
497
490
491
497
496
496
496
496
494
502
490
496
490
490
496
494
496
498
505
492
485
493
491
492
490
502
515
496
496
496
491
491
491
488
490
489
495
494
507
496
496
494
492
492
491
491
491
499
496
497
491
492
491
490
478
491
491
489
495
497
496
495
496
492
490
494
454
491
489
495
496
497
495
497
499
494
491
493
492
491
496
495
502
496
496
491
493
505
492
491
492
497
482
498
497
496
492
494
490
490
491
491
497
485
495
497
513
492
486
491
490
491
491
496
495
496
494
497
491
490
493
494
491
491
495
496
496
496
496
492
492
491
491
492
491
496
495
496
497
496
491
491
492
495
491
493
496
496
496
496
496
492
491
491
484
492
490
496
496
494
497
496
490
489
491
492
491
493
497
496
497
498
496
492
482
493
505
491
490
496
496
497
496
496
490
490
490
490
492
492
497
496
496
485
497
488
491
471
490
490
486
496
495
495
496
497
506
491
491
487
495
491
497
496
482
497
496
492
490
492
491
491
491
497
496
495
496
495
490
492
491
496
490
491
495
496
495
495
496
491
491
491
492
491
489
496
496
496
483
496
495
491
492
491
491
440
496
496
497
496
496
493
491
491
492
491
492
496
496
494
496
496
496
492
490
490
491
491
496
490
495
496
494
491
491
491
491
491
491
496
496
495
496
496
471
491
491
490
490
489
496
496
498
494
496
496
490
491
492
491
442
495
497
508
477
497
495
489
491
491
491
491
495
497
496
496
496
491
491
491
487
491
490
496
496
498
496
496
491
491
489
492
491
489
496
496
496
496
496
492
490
492
491
492
491
496
496
496
496
496
491
492
491
491
490
491
496
496
496
496
496
496
491
492
488
490
489
501
494
496
494
496
504
491
492
491
491
492
497
495
496
496
482
491
491
490
490
491
493
495
493
496
495
496
492
491
464
491
491
488
496
497
497
496
497
494
491
491
491
490
491
496
496
496
496
496
496
491
490
490
494
442
495
496
496
497
485
490
490
492
491
491
490
496
496
496
496
498
492
490
492
491
490
490
495
496
496
486
496
492
492
491
491
492
491
495
496
497
512
495
496
496
491
503
490
295
496
496
496
496
494
492
491
476
489
491
489
491
496
501
497
496
492
491
490
491
490
491
494
495
495
495
496
491
491
491
491
490
491
496
496
496
497
496
496
497
508
491
493
444
500
495
496
496
497
497
491
491
492
492
443
496
487
495
494
495
496
491
489
491
491
440
507
496
497
495
497
490
467
492
492
490
488
495
497
496
495
496
490
491
491
491
492
489
496
500
496
466
496
494
492
491
491
490
491
472
487
496
498
497
494
493
491
491
490
491
496
496
497
496
495
493
491
494
495
491
491
496
495
496
496
495
492
492
490
491
490
491
498
495
495
496
499
496
491
492
491
492
442
495
496
496
496
497
492
492
490
491
491
492
494
496
497
495
495
478
492
491
473
491
487
496
495
496
496
496
490
491
491
490
491
489
491
496
495
496
497
496
472
491
492
472
438
495
496
497
496
479
490
491
491
491
491
490
494
486
496
495
495
491
492
491
490
491
489
496
496
497
489
497
499
491
491
492
490
442
493
495
493
496
485
491
491
490
494
491
488
497
496
495
495
495
496
492
491
492
490
443
496
505
495
497
496
492
491
491
492
492
492
496
496
496
496
496
496
495
491
491
491
492
502
496
507
495
496
496
490
497
491
491
442
497
496
497
496
496
491
491
491
504
494
493
492
497
496
496
496
491
492
490
490
478
489
496
496
496
496
497
493
490
492
492
491
491
496
496
496
496
493
491
490
491
491
490
490
496
499
496
496
498
496
492
490
490
492
441
496
496
496
509
496
491
490
491
491
491
491
496
496
496
497
496
495
490
491
490
491
440
496
498
497
495
496
491
492
492
492
487
491
501
496
495
497
495
495
493
492
491
492
492
496
497
496
496
496
490
492
491
491
491
492
497
496
499
496
497
491
492
491
491
481
490
496
494
497
497
475
492
491
491
497
492
490
495
495
497
497
496
491
492
490
491
491
490
497
497
495
496
496
498
491
491
491
491
440
496
492
496
495
496
492
490
486
488
492
490
500
496
496
496
496
493
491
492
491
491
490
496
486
496
489
496
493
488
496
491
491
492
497
495
496
497
495
496
491
490
490
490
488
496
496
500
495
496
493
490
492
481
491
490
496
496
497
495
497
494
491
492
492
492
442
496
496
495
496
497
491
492
492
490
492
491
496
505
498
496
496
492
491
492
477
492
488
496
497
496
496
496
495
491
490
491
491
440
496
496
508
496
497
490
491
493
491
490
491
495
494
496
496
496
492
491
491
490
491
490
496
477
498
487
496
491
491
490
491
490
491
497
489
496
495
495
492
490
491
491
491
491
497
495
496
496
499
492
490
494
491
491
490
494
496
495
496
496
491
494
491
498
492
492
487
497
496
495
497
493
491
491
479
488
489
496
495
496
500
496
494
491
492
492
492
491
496
513
495
500
496
483
490
491
504
492
490
496
496
496
495
497
488
492
491
491
493
490
496
496
496
496
498
464
492
491
491
492
486
499
516
496
496
496
492
491
490
491
491
490
496
496
496
496
495
493
491
491
491
490
491
495
495
496
494
495
491
492
491
484
492
490
496
496
496
496
496
490
486
492
495
491
490
494
495
496
496
496
495
490
492
491
492
490
494
496
485
467
495
490
492
488
492
491
490
486
496
495
496
496
491
491
491
492
491
490
503
495
495
495
497
497
491
491
492
492
443
496
496
496
494
501
492
489
490
490
491
490
496
496
496
496
497
492
492
491
492
492
488
496
496
496
495
496
492
491
491
492
491
491
496
491
496
501
496
495
475
492
493
488
440
496
496
496
496
509
491
491
492
491
489
491
496
494
496
495
496
494
491
493
489
491
491
495
496
495
496
497
491
506
492
491
491
492
497
495
497
496
496
492
490
490
491
492
488
495
496
490
495
496
491
488
491
492
491
491
496
495
496
496
495
496
490
492
491
491
441
495
496
497
496
497
491
491
491
491
491
491
496
496
496
496
507
496
490
491
492
492
443
496
496
496
496
496
496
492
491
491
491
442
484
496
487
496
496
492
491
492
492
491
491
499
495
496
496
496
497
491
492
489
494
491
496
496
496
496
496
492
493
491
493
458
488
496
497
495
495
494
489
468
491
491
490
488
494
496
496
498
496
492
495
490
490
491
492
496
496
496
500
496
493
493
492
490
491
491
494
496
497
499
496
493
491
491
491
491
491
496
496
496
497
496
490
491
491
491
490
490
508
495
498
494
499
492
490
490
490
492
492
496
496
508
496
496
492
492
492
491
491
491
496
494
496
496
496
495
473
491
491
491
491
496
496
497
496
495
492
499
491
491
491
492
496
501
497
497
496
491
493
494
491
491
490
496
495
496
494
494
491
490
491
492
489
490
497
495
496
496
495
491
491
491
491
491
491
496
495
485
496
500
490
492
491
492
491
492
496
496
494
495
496
491
494
491
485
489
490
495
496
496
496
496
492
492
490
503
490
490
495
495
496
495
496
492
490
492
492
491
491
496
501
497
503
496
492
492
491
490
491
491
496
496
495
496
495
492
491
491
491
491
491
497
507
495
494
495
493
489
491
491
494
489
497
494
495
496
496
494
492
491
491
490
490
495
495
496
495
497
496
493
490
493
496
492
496
496
496
496
496
490
492
492
496
492
492
494
495
494
496
503
501
491
492
491
491
492
515
496
496
495
496
490
486
491
491
491
490
499
497
496
490
496
491
491
491
493
491
491
496
486
496
496
496
493
490
490
491
491
491
470
497
495
496
496
491
491
491
491
492
489
496
496
496
495
496
492
491
491
491
491
492
496
496
496
507
496
491
492
491
491
491
491
495
496
499
489
496
492
491
491
491
492
491
496
496
471
496
496
493
492
491
491
468
487
496
495
496
495
496
477
478
491
491
491
440
496
497
496
496
496
491
496
490
491
484
488
497
495
497
496
496
496
490
491
491
491
441
503
495
496
495
496
492
504
501
474
492
491
490
499
495
497
497
491
491
492
490
491
488
495
496
496
494
496
491
491
490
493
512
491
495
492
496
497
496
509
491
491
491
490
442
497
491
496
497
498
496
482
490
491
479
489
496
497
496
499
496
492
491
492
491
491
489
495
507
496
495
496
486
491
491
491
491
490
499
496
495
496
496
503
491
492
491
491
491
496
496
497
496
496
493
491
484
491
492
490
496
498
496
503
496
490
493
487
491
492
490
493
496
497
496
496
491
492
494
491
508
492
495
496
495
496
496
495
494
492
492
470
490
497
496
496
504
499
491
491
491
491
496
491
496
476
496
496
497
494
497
503
491
491
493
496
495
495
496
497
493
494
491
491
492
490
496
496
496
497
497
491
494
480
491
491
490
496
472
497
495
462
491
492
487
490
491
490
495
496
496
495
497
491
490
490
494
491
489
496
495
496
496
499
501
490
491
493
505
491
498
495
496
496
496
491
492
490
492
490
492
496
496
496
496
494
484
490
491
491
491
490
497
496
497
496
477
491
490
490
490
492
491
496
500
502
495
496
489
492
491
489
491
444
498
497
477
496
499
491
491
491
492
491
489
507
496
496
496
496
494
493
495
490
500
492
496
472
496
507
494
491
503
490
491
490
492
497
496
496
495
501
496
491
491
491
490
442
496
496
478
495
496
491
490
491
491
481
484
496
496
496
496
496
494
491
500
490
492
492
495
495
497
497
497
491
490
490
491
454
487
495
494
496
495
496
491
490
493
491
490
491
497
481
495
497
496
492
491
476
490
492
490
496
495
505
495
496
492
491
492
490
491
490
496
496
496
496
477
492
492
491
491
498
492
497
488
495
499
496
491
491
483
491
491
490
495
496
496
496
496
491
478
492
491
491
491
494
473
496
496
496
492
489
492
491
491
491
496
496
496
495
502
491
492
492
491
492
491
496
496
496
496
497
494
491
491
491
492
491
496
494
497
496
496
491
490
491
490
491
487
496
497
496
496
496
496
491
467
491
491
488
496
484
496
495
496
491
459
491
491
491
487
495
496
497
497
496
493
491
491
491
492
491
499
497
497
496
496
491
493
491
493
490
491
495
497
496
496
495
495
491
491
490
491
491
500
496
495
496
496
492
491
492
491
491
491
495
496
487
486
496
492
491
482
491
491
490
496
495
486
495
494
491
491
491
492
491
493
502
496
497
487
495
492
491
492
496
477
490
495
495
496
496
496
491
491
491
470
491
488
496
496
496
496
496
492
491
491
491
490
490
496
496
486
497
496
493
491
491
492
492
491
495
507
496
501
495
492
480
491
491
493
489
482
496
482
497
496
490
494
490
490
490
491
496
497
496
496
498
491
491
494
501
490
492
496
495
490
495
496
491
491
490
491
498
493
497
509
497
495
496
493
491
491
491
490
490
496
495
505
496
508
491
492
491
491
491
491
496
496
496
495
496
492
499
496
477
491
491
497
496
495
495
496
492
492
492
492
492
489
497
497
498
496
496
496
492
494
490
491
441
496
496
497
498
497
492
491
491
490
491
491
496
496
496
495
496
492
491
491
490
492
491
497
504
496
495
496
472
492
491
491
493
490
494
495
496
496
495
493
504
491
512
492
493
500
508
496
497
496
491
491
493
489
491
490
497
496
496
496
495
494
492
489
491
491
491
497
495
497
496
496
492
492
490
489
490
491
496
487
495
495
496
491
491
491
491
491
490
497
475
497
496
496
492
489
490
491
491
490
495
496
496
496
496
491
490
490
483
491
488
496
497
495
496
496
493
491
492
491
490
491
496
496
482
495
496
491
499
491
492
491
491
495
496
497
496
495
496
490
491
491
492
442
492
495
496
497
496
506
491
491
489
489
492
496
496
496
496
497
503
491
495
491
490
488
495
495
498
500
496
505
491
491
490
490
492
494
500
496
495
496
491
491
491
490
492
493
499
496
495
496
497
494
493
491
491
491
491
496
496
496
489
496
494
492
492
491
494
490
496
496
494
497
496
492
494
491
491
491
489
495
496
496
497
495
492
492
491
491
491
488
495
495
495
495
499
493
494
490
492
496
492
496
496
497
495
496
493
490
491
492
490
491
495
486
486
496
495
491
492
491
491
491
491
496
495
495
496
496
493
493
490
492
491
491
497
498
496
497
496
491
491
491
490
491
489
496
497
507
495
495
496
492
491
491
490
442
473
496
494
496
497
497
491
476
493
491
491
496
485
496
496
496
486
491
491
491
491
490
478
497
496
496
496
493
491
491
491
509
493
496
496
495
494
496
492
491
495
492
492
491
496
495
496
497
496
492
501
492
491
508
492
498
500
505
495
497
493
491
490
491
490
492
496
496
496
496
495
496
495
490
491
492
492
496
497
465
496
496
492
492
492
491
491
491
495
498
496
496
496
491
491
490
490
491
491
496
495
496
496
495
495
491
491
494
494
492
496
496
496
495
496
491
491
492
483
492
489
495
496
496
496
496
490
491
491
491
491
491
496
496
495
494
494
496
491
497
490
493
443
496
498
495
508
496
502
491
489
492
490
490
496
495
491
496
496
492
492
491
491
505
492
501
496
496
495
496
492
492
492
491
491
493
497
497
496
496
496
491
491
491
493
492
491
496
496
496
501
496
491
491
490
492
492
491
497
514
495
497
496
500
491
481
491
491
491
496
496
496
495
496
491
491
509
490
491
492
496
496
496
494
509
494
491
492
474
491
489
496
496
496
496
496
496
491
492
492
490
490
496
495
502
496
496
491
492
479
491
493
490
496
496
495
505
498
496
490
492
491
491
442
496
496
495
496
496
491
491
476
500
490
490
497
496
498
494
496
493
492
487
491
491
492
495
496
496
496
496
492
492
491
491
459
488
495
496
495
497
495
484
491
495
490
491
490
497
497
496
496
496
498
472
491
492
495
490
497
499
496
507
495
493
492
491
493
477
490
496
496
496
496
496
490
501
492
475
492
489
496
496
495
509
495
491
491
491
496
490
491
496
498
496
496
496
493
492
491
482
491
490
479
496
496
482
496
492
491
490
495
492
491
496
496
496
496
496
491
492
491
492
490
491
496
496
497
496
496
491
492
491
485
492
489
496
496
497
496
496
496
492
491
490
490
442
497
496
496
496
495
490
490
493
494
472
490
494
499
495
498
490
490
505
492
490
496
494
498
495
496
497
494
495
491
491
483
491
491
496
472
496
496
485
469
491
491
491
491
490
477
496
496
489
495
492
491
490
491
490
490
503
497
496
496
496
490
491
491
491
491
490
496
496
496
496
496
493
491
494
493
491
492
507
496
496
506
496
491
491
491
491
491
492
496
494
495
496
496
496
491
491
491
491
442
496
496
496
495
495
492
491
498
490
490
491
496
497
496
496
512
493
491
491
491
491
491
496
497
514
495
495
491
492
491
491
492
491
495
496
497
496
496
491
491
496
491
497
492
508
495
496
496
497
490
492
491
492
490
491
497
496
496
496
496
492
497
491
489
492
491
496
495
497
499
496
485
491
491
492
491
490
508
496
496
496
497
492
492
492
491
490
490
496
477
482
496
496
492
491
494
492
492
490
495
495
496
491
496
491
491
492
492
490
491
496
496
496
496
496
499
492
492
490
492
442
496
496
495
495
498
479
512
492
491
501
493
496
496
494
496
495
491
461
491
491
492
488
496
496
496
496
497
492
492
491
491
492
490
496
496
496
494
496
491
492
492
491
498
492
496
495
496
497
496
483
506
492
490
492
492
480
487
496
496
504
488
491
491
492
490
486
497
495
497
495
496
491
493
492
491
490
491
497
495
496
495
495
495
491
492
492
491
442
496
495
497
497
496
490
491
490
491
502
491
497
496
503
496
498
490
491
491
491
491
491
496
496
496
496
496
491
491
508
484
492
492
489
491
501
486
484
492
491
489
493
491
491
500
491
496
478
496
491
491
491
494
491
491
484
496
496
496
496
474
491
492
491
490
489
496
496
496
495
496
487
491
491
491
490
490
496
496
497
495
496
491
507
491
491
492
493
495
496
496
481
496
494
491
492
491
490
491
496
496
496
497
496
491
508
491
491
491
493
497
495
496
496
496
496
500
492
491
491
492
496
497
496
496
498
496
492
491
497
491
443
502
495
497
495
509
491
490
490
507
491
492
495
497
495
496
474
492
492
491
491
491
491
494
496
496
496
496
472
491
494
491
491
489
496
496
496
496
492
492
492
491
491
491
492
496
496
496
496
494
491
491
496
480
491
490
495
497
496
494
496
492
491
491
492
491
493
497
496
495
495
497
491
491
496
490
492
490
496
497
497
496
496
491
491
491
491
492
491
498
496
504
497
496
492
491
491
491
490
490
505
497
475
496
496
493
491
490
491
494
492
496
497
495
499
497
503
491
492
492
490
442
497
489
500
496
496
493
500
490
461
491
489
506
497
496
496
497
492
490
490
491
491
492
495
497
495
496
498
491
463
493
492
492
487
497
496
495
499
496
496
492
492
491
491
442
496
496
496
496
496
488
491
491
497
492
490
496
495
496
496
495
490
490
493
491
491
488
495
497
497
495
495
491
490
492
491
492
492
507
496
496
496
496
489
491
491
490
490
490
496
496
496
495
496
492
492
488
491
491
490
497
496
482
497
496
492
491
491
490
492
490
496
495
496
485
509
491
489
491
491
491
490
496
496
496
496
496
492
492
490
492
492
491
498
496
496
498
496
491
492
491
491
491
491
496
495
495
496
496
492
478
491
492
494
490
496
496
495
496
479
491
491
491
491
474
489
496
495
495
497
495
492
490
490
507
491
493
497
496
496
495
496
493
492
491
491
491
489
495
496
497
495
483
493
490
491
490
491
491
496
495
495
497
496
491
469
491
491
491
489
494
496
496
496
497
490
491
491
491
490
492
496
496
478
496
494
492
490
491
491
492
489
494
496
512
497
496
492
491
492
492
491
489
496
496
483
496
497
491
491
491
491
492
491
496
495
510
496
496
496
492
491
491
491
441
496
496
501
496
496
492
491
491
492
491
491
496
495
496
496
496
495
492
492
490
490
491
495
498
496
496
495
490
491
491
491
491
491
497
497
497
496
496
493
491
491
495
485
490
497
496
497
496
496
494
492
492
492
491
491
497
496
491
496
496
491
491
491
490
480
487
496
496
496
494
496
491
491
495
491
490
489
496
496
496
496
504
492
493
486
501
492
487
496
497
496
496
496
491
490
492
491
491
492
496
470
495
496
496
492
492
491
491
491
491
495
496
493
496
496
491
491
490
491
492
488
496
516
496
500
509
491
490
491
490
492
489
495
499
497
495
496
492
491
492
492
493
492
497
496
496
496
495
493
492
492
492
492
492
496
496
495
496
496
492
491
490
490
505
492
496
496
496
496
496
487
491
504
491
498
492
496
495
496
495
495
491
478
491
492
492
491
496
496
495
497
495
496
491
492
492
491
492
495
496
496
496
496
491
491
491
492
491
489
495
496
498
495
496
471
508
491
490
491
490
496
496
498
496
496
491
493
495
491
490
489
495
496
496
496
497
464
491
491
502
492
490
496
506
496
496
488
490
491
492
492
492
486
495
495
496
496
496
494
491
489
492
490
491
494
497
496
496
496
493
492
492
490
492
489
496
496
496
496
496
490
492
492
491
492
491
496
499
496
496
495
493
492
495
491
496
492
496
495
496
496
496
499
490
482
490
492
490
497
496
496
497
497
491
491
491
492
468
488
496
496
496
496
494
501
494
498
490
489
491
496
496
496
497
496
492
492
492
490
491
491
497
496
485
496
494
498
492
492
491
492
492
496
495
496
496
496
512
478
494
499
491
493
496
496
495
497
496
491
491
491
491
492
491
496
482
497
496
499
504
499
490
506
491
490
497
495
497
495
499
491
495
491
493
491
492
501
471
502
497
497
492
491
492
491
491
489
494
496
497
496
496
493
493
491
492
491
490
498
496
502
496
504
491
491
491
491
491
490
496
490
496
496
496
496
494
494
492
491
444
496
496
496
495
508
493
490
480
504
491
493
496
496
497
495
495
492
475
491
491
491
490
493
494
496
497
508
491
490
492
491
492
492
497
478
496
495
497
512
491
478
491
492
488
495
503
497
496
496
491
491
496
492
491
490
466
496
503
496
496
509
491
491
491
491
491
495
496
499
495
496
491
491
508
488
478
491
500
496
496
497
496
493
490
490
490
491
490
495
496
472
495
496
493
491
491
491
490
490
495
496
496
496
496
492
491
471
491
480
488
499
498
496
498
496
492
491
491
491
491
489
495
500
496
500
496
492
477
492
492
490
489
495
494
495
496
496
493
491
492
496
491
492
497
495
497
496
495
491
491
491
490
491
491
497
496
496
496
497
492
491
490
493
492
490
495
496
496
497
496
491
492
489
492
492
491
496
496
496
503
487
496
492
493
492
491
442
496
495
495
496
509
492
492
491
492
491
492
496
495
495
495
499
491
490
494
491
491
490
496
496
497
493
497
491
490
489
490
491
491
496
496
498
497
496
491
491
491
490
491
490
497
496
496
496
497
491
485
491
491
491
490
497
496
487
495
496
512
493
492
470
491
491
496
496
496
496
485
495
495
491
492
496
442
495
497
490
514
496
492
491
490
491
491
491
496
495
496
496
496
491
491
492
491
491
491
496
496
496
494
498
490
491
492
486
490
491
497
496
496
494
495
501
491
492
491
491
492
496
496
496
496
475
489
489
491
463
495
488
496
497
507
495
495
491
492
472
493
491
489
498
496
496
496
496
490
483
492
490
492
489
503
496
496
496
496
491
497
488
490
491
492
495
497
463
496
494
492
490
491
492
491
491
496
496
497
496
495
493
491
491
491
491
491
494
508
497
496
497
493
491
491
492
496
492
495
499
497
496
496
491
491
493
491
492
491
496
496
496
501
496
490
495
490
491
490
486
496
497
496
496
496
491
477
465
491
490
486
495
495
496
496
496
494
492
491
492
491
491
497
499
496
499
497
491
481
486
492
504
490
498
496
496
509
496
491
493
490
490
491
491
496
506
496
496
496
491
491
491
491
492
490
496
501
495
496
496
497
494
490
492
492
492
496
491
495
496
485
492
492
491
488
491
490
496
497
497
496
496
492
491
493
492
494
491
497
496
496
497
495
494
487
491
491
492
442
472
497
496
497
499
494
491
491
491
490
491
499
498
485
496
496
496
492
490
492
491
441
496
497
497
496
496
493
492
490
491
491
491
497
498
497
494
512
496
490
491
492
492
488
496
495
496
495
498
490
492
490
490
483
490
496
496
497
498
497
491
493
489
476
491
490
496
496
496
495
462
496
491
492
491
492
492
496
495
502
495
482
492
492
491
491
490
491
496
496
499
494
493
492
491
491
491
491
489
495
495
500
496
496
480
491
490
491
491
492
496
496
495
490
496
491
492
492
490
492
491
495
493
496
496
495
492
491
488
491
491
489
496
496
496
497
496
491
492
475
492
506
489
497
496
480
496
496
492
494
491
493
491
491
496
497
496
495
495
492
491
491
492
491
491
471
504
496
490
497
492
491
491
490
491
491
496
497
487
495
495
492
491
490
492
491
487
495
496
504
496
495
492
492
495
492
491
492
496
496
496
482
495
490
490
485
491
499
490
497
496
496
500
495
492
493
491
491
466
489
501
497
496
498
496
493
491
491
491
489
491
496
507
487
501
497
491
491
495
495
491
491
495
497
489
494
495
491
506
490
491
492
490
494
498
499
508
497
490
492
492
491
492
490
494
495
496
496
496
506
490
493
499
490
493
496
478
495
496
497
497
492
491
491
492
442
496
497
497
497
495
493
495
490
465
491
488
496
496
495
498
496
492
491
496
494
490
491
463
498
496
495
496
458
492
490
490
493
488
497
497
477
496
494
491
492
490
491
491
491
478
497
496
496
496
492
490
492
508
491
493
494
495
497
496
497
457
492
491
491
491
487
491
496
495
496
495
487
490
491
491
481
489
497
496
495
497
496
491
492
491
492
491
490
496
497
496
496
496
492
490
491
491
506
492
494
496
496
496
496
496
489
493
491
491
439
496
497
496
497
496
492
491
491
490
491
491
496
496
496
491
496
491
490
491
490
502
491
496
472
496
497
498
493
492
473
491
475
487
496
495
497
500
496
491
492
491
490
492
492
501
496
496
496
496
491
491
496
490
491
491
494
494
496
495
496
491
491
490
491
492
490
493
498
496
496
496
491
491
491
491
492
492
496
496
494
496
497
492
491
490
491
494
491
498
496
496
496
496
487
491
490
492
491
490
495
487
496
496
496
495
491
492
494
493
492
495
495
496
497
496
492
490
492
499
491
493
497
496
495
496
495
501
492
491
493
490
442
497
496
496
501
495
495
484
492
492
491
441
496
489
497
496
496
493
490
499
496
491
493
485
502
496
495
499
493
492
490
491
491
491
495
491
496
496
495
503
491
486
491
490
491
494
496
497
479
496
491
492
490
490
492
491
497
496
494
496
496
492
491
492
490
492
491
503
495
495
496
497
497
490
492
492
491
442
496
495
496
496
496
495
491
490
491
491
490
496
494
495
497
495
491
491
490
491
493
490
495
496
498
499
496
501
491
494
491
491
442
495
496
497
496
496
490
491
490
491
492
491
496
496
496
496
491
508
491
491
490
489
441
496
496
496
471
496
456
491
492
492
491
488
489
496
496
495
495
490
491
492
491
492
491
477
495
496
495
493
490
490
491
492
491
490
496
496
496
475
497
492
491
491
491
490
487
495
496
496
497
507
496
492
491
490
495
443
496
474
497
496
495
492
490
490
490
490
491
496
494
494
495
495
492
491
491
491
493
491
496
496
496
496
496
494
493
490
491
492
491
496
499
496
496
496
491
490
491
491
490
492
496
498
495
496
497
492
492
505
492
489
493
496
496
496
496
497
496
491
470
491
491
490
496
495
495
495
492
503
492
491
492
492
492
497
502
496
496
495
492
490
490
489
491
488
496
496
494
496
496
478
497
491
492
492
491
494
496
496
497
498
490
490
492
493
494
490
496
497
496
495
503
491
491
490
490
491
491
496
497
495
500
496
491
491
492
491
495
489
496
488
498
496
500
491
491
491
477
491
487
496
496
495
496
496
492
491
492
490
491
489
489
496
479
498
496
503
494
492
492
493
492
496
497
495
495
496
490
491
496
491
491
491
497
495
496
496
496
497
492
473
491
494
491
495
496
496
497
496
492
491
495
492
496
492
491
496
495
497
496
492
494
491
491
491
490
496
496
497
485
496
493
491
491
490
491
491
495
496
496
496
496
493
493
492
492
491
491
476
496
496
475
496
492
492
491
491
492
490
497
496
496
496
503
506
490
495
491
491
493
496
496
496
496
496
505
492
491
491
491
493
496
496
499
496
498
490
492
491
481
491
491
497
496
497
496
496
492
492
490
492
491
492
494
496
509
497
495
492
491
492
490
495
490
496
497
495
507
496
493
492
491
491
477
490
496
496
496
495
496
492
494
491
491
491
492
498
496
496
496
496
491
491
491
491
492
491
497
496
496
496
495
491
489
458
490
491
487
496
496
496
507
505
506
496
490
496
486
493
496
497
496
495
497
493
491
492
484
491
490
496
496
495
497
496
491
476
490
492
476
488
495
495
490
496
496
494
491
491
491
491
492
496
496
499
496
496
492
492
491
496
471
489
499
496
496
495
495
512
492
492
490
491
492
497
496
497
497
495
492
490
492
490
492
489
496
496
490
497
496
492
490
492
501
492
494
496
484
497
496
496
491
490
492
490
491
490
496
502
497
490
496
495
491
492
492
491
493
509
496
500
512
496
493
491
495
492
490
492
496
496
498
496
495
491
490
491
491
491
489
496
496
497
496
468
491
490
492
491
492
491
496
463
495
503
496
491
491
492
494
490
491
495
496
507
496
497
491
491
492
492
491
491
496
496
495
495
496
495
494
492
491
471
441
495
497
496
496
477
496
491
492
491
491
441
491
496
499
499
497
492
491
485
491
490
487
496
495
496
496
496
492
491
506
489
490
493
496
497
496
497
495
501
490
490
491
485
491
497
496
497
496
497
496
494
491
491
492
442
496
495
496
501
496
492
492
491
491
492
489
509
496
495
496
496
496
497
492
492
491
442
498
497
496
496
497
491
491
491
491
491
491
497
496
496
493
496
491
491
490
490
491
491
496
496
495
488
494
492
485
490
490
491
488
485
496
496
496
494
491
492
476
495
495
490
495
496
504
496
496
494
490
490
490
492
491
496
496
496
497
496
456
491
492
491
491
487
496
501
480
497
497
492
492
492
489
492
492
496
509
497
495
496
498
492
491
492
491
492
467
496
496
496
496
492
491
491
493
490
492
496
496
486
495
496
491
491
492
492
490
490
495
496
496
495
496
497
491
492
492
492
441
508
502
496
496
496
493
506
491
492
491
494
495
494
496
496
501
496
491
501
491
491
442
496
496
496
499
496
492
492
490
490
490
490
501
495
496
501
496
491
491
491
490
491
490
497
495
496
496
495
495
491
493
497
491
492
495
496
496
496
496
497
491
491
491
491
493
496
495
496
493
496
496
492
492
478
497
491
493
496
496
497
496
495
491
492
496
492
492
502
498
496
496
496
492
491
493
492
491
491
496
495
495
495
496
491
491
492
491
492
491
496
500
497
496
496
490
496
492
492
491
491
496
496
495
496
496
495
491
494
492
478
441
497
496
494
497
498
496
492
491
491
491
442
496
496
496
495
496
491
490
491
492
491
491
496
476
495
496
495
496
490
501
478
491
443
496
496
496
496
495
497
492
491
491
491
442
497
492
496
496
496
496
492
492
492
492
439
484
497
496
496
497
492
491
492
491
490
491
496
509
496
492
497
491
491
491
491
491
441
496
499
482
493
496
491
492
491
490
500
490
496
497
489
497
501
491
490
491
490
492
491
496
496
500
495
483
492
491
492
485
491
491
497
515
496
478
496
496
492
505
492
496
443
496
497
495
496
497
493
492
491
490
492
490
495
496
495
496
496
487
495
494
491
492
491
496
497
496
495
496
487
494
492
490
491
490
496
496
497
497
494
494
491
491
493
491
491
496
496
497
496
496
492
491
492
494
508
493
482
496
496
497
496
491
491
495
491
490
490
496
499
496
490
496
488
492
491
491
492
491
496
497
504
496
496
491
491
492
491
491
491
494
498
498
496
497
491
491
491
491
491
492
496
495
496
500
496
492
492
492
504
491
492
496
493
496
496
491
493
491
491
484
491
490
495
496
496
487
496
494
491
492
491
490
492
497
495
497
496
496
492
491
491
491
491
491
496
484
496
509
497
504
491
490
506
491
494
496
495
496
512
497
491
490
491
491
491
491
493
497
497
498
496
491
491
490
491
491
491
497
496
496
496
495
496
492
491
492
488
442
497
496
495
496
496
491
491
492
490
492
491
496
490
496
496
496
493
490
491
491
492
490
477
496
496
496
495
491
490
491
492
492
492
496
504
497
496
496
491
492
491
491
488
491
496
496
496
495
496
491
491
491
492
506
492
497
496
498
497
496
491
464
469
491
491
482
496
494
497
496
497
492
492
492
491
498
491
495
496
497
496
497
495
473
491
492
488
440
496
497
501
499
497
492
492
491
490
491
491
496
504
496
498
512
491
491
491
491
491
491
495
496
498
496
492
492
490
491
491
491
491
496
487
497
495
495
491
492
492
492
491
491
496
490
495
496
496
491
491
491
493
491
491
497
497
496
495
496
492
491
491
490
492
490
496
497
495
496
496
496
492
507
491
491
443
497
498
496
496
497
496
491
491
490
473
489
496
501
496
496
496
492
490
490
490
506
492
497
496
500
495
500
491
494
491
491
492
491
516
495
494
496
497
491
492
490
490
490
494
496
496
497
495
496
493
489
491
491
491
490
496
497
495
497
470
493
490
491
491
491
491
495
496
496
495
494
491
492
491
464
491
488
496
496
496
496
494
492
491
492
491
490
491
497
496
496
495
497
491
493
491
493
490
491
496
496
495
499
494
494
491
492
491
491
492
496
496
490
496
498
491
491
491
491
491
490
496
495
495
496
491
497
490
491
491
482
441
497
498
512
496
496
492
491
495
492
493
493
496
496
497
495
496
496
491
491
491
491
440
496
496
497
496
496
496
477
492
492
493
491
497
496
497
496
496
491
493
491
491
490
491
494
496
497
496
479
491
493
491
491
490
491
499
496
495
496
497
492
492
492
495
491
492
486
494
495
496
495
503
490
491
492
491
490
495
496
496
497
496
492
491
493
492
503
493
496
496
495
494
500
493
491
492
491
492
490
494
496
497
496
497
491
496
493
491
489
491
496
497
496
498
500
495
490
491
491
490
493
495
497
486
496
497
492
491
492
491
491
489
496
497
497
496
495
491
493
491
491
491
491
495
497
496
496
496
492
491
491
492
492
489
497
496
496
496
497
492
491
490
505
491
490
495
495
497
496
496
490
491
493
491
490
491
495
497
496
496
503
495
494
491
491
492
442
495
496
495
497
497
492
491
491
491
491
491
497
496
496
495
496
491
491
492
490
491
491
498
496
496
496
497
491
492
491
491
491
491
495
495
496
496
496
494
491
492
500
492
490
493
496
488
496
496
492
491
491
491
491
491
496
496
500
496
495
496
492
491
492
490
442
496
494
496
495
495
497
495
491
499
501
495
496
495
497
498
480
507
494
491
491
491
491
496
495
491
496
496
484
491
491
487
492
490
496
495
494
497
497
496
492
490
490
491
491
497
496
494
495
497
492
494
492
492
491
492
498
499
496
495
496
491
492
491
491
491
491
496
496
512
497
496
502
491
499
491
483
491
496
496
480
496
496
492
478
491
492
491
490
496
495
488
496
499
509
493
491
491
492
442
496
496
496
495
495
491
488
495
491
491
491
496
499
496
496
496
493
491
490
491
491
491
497
495
496
497
494
493
487
491
490
491
490
496
463
496
497
498
491
491
496
493
489
491
497
498
496
496
497
490
490
490
491
495
490
499
497
496
496
496
492
502
491
494
493
491
495
497
496
496
496
492
494
490
494
491
492
497
482
495
495
507
491
479
492
506
491
491
487
496
497
495
497
492
491
495
491
493
492
497
496
496
493
496
492
491
491
493
491
491
495
496
496
496
496
492
491
492
491
491
492
496
496
500
492
496
494
474
491
492
492
490
496
497
496
496
496
493
489
472
490
493
489
495
494
492
497
496
492
491
491
491
493
491
472
496
498
496
496
495
492
491
487
491
491
497
495
503
496
508
492
491
492
491
491
491
496
494
486
496
496
492
492
490
494
494
490
495
496
494
496
496
490
490
492
492
491
490
484
496
496
496
495
492
490
494
492
491
491
496
495
503
497
496
494
492
491
491
491
491
499
496
495
498
498
491
491
491
491
490
492
496
496
497
495
497
492
492
491
491
491
488
496
496
469
496
496
491
491
481
491
491
490
496
497
496
495
496
495
491
483
492
491
489
496
496
495
497
496
492
492
492
490
491
491
487
497
495
497
496
491
491
492
491
491
490
496
496
497
496
496
494
501
477
492
491
491
496
497
495
496
490
490
491
490
491
492
491
496
473
496
490
496
493
464
492
491
490
488
490
495
497
495
496
491
491
491
490
491
491
497
496
496
496
496
492
491
503
504
491
493
496
496
497
496
496
491
491
491
491
492
492
482
496
496
495
496
491
491
491
491
490
492
495
496
496
496
496
491
481
496
492
491
490
497
469
496
496
496
491
495
493
491
492
491
497
489
496
495
495
493
491
493
491
491
491
496
482
496
496
494
493
491
491
490
490
491
496
497
496
496
495
493
493
491
498
491
492
497
496
462
496
497
494
493
487
490
491
491
496
497
495
498
497
492
491
491
490
494
491
494
496
497
496
496
494
490
491
481
491
490
496
496
494
496
495
496
491
491
491
492
439
496
497
495
497
496
492
492
491
491
497
490
495
496
495
497
497
491
492
491
490
491
489
496
495
504
495
500
484
491
491
492
494
489
496
496
502
496
496
491
491
491
492
492
491
496
495
496
496
497
490
491
491
474
492
489
492
496
495
497
471
483
491
491
490
491
490
496
499
496
495
497
495
492
492
493
491
492
497
496
496
495
497
483
491
491
491
492
490
496
485
508
495
496
491
491
491
491
482
490
498
496
497
496
495
491
491
492
504
491
492
495
496
496
494
496
492
490
493
492
492
490
498
494
496
497
496
492
491
491
490
491
493
496
496
495
496
496
492
492
493
492
508
493
496
496
496
497
496
493
491
490
494
491
491
496
496
495
495
496
513
491
492
491
491
494
496
497
496
496
497
496
491
492
490
471
441
495
496
495
498
496
492
491
492
489
489
491
496
495
497
496
496
493
493
490
492
492
491
481
496
491
488
497
493
491
492
461
492
488
496
500
498
500
496
491
491
491
491
472
489
495
496
500
496
491
491
479
491
491
501
490
496
497
496
497
496
490
491
490
491
492
491
497
496
499
494
496
494
491
491
479
492
485
497
496
496
497
496
494
490
491
492
491
491
495
496
495
490
495
491
492
498
491
490
490
495
498
500
495
496
493
484
480
491
490
489
495
499
495
462
497
492
491
490
501
490
493
496
496
496
496
496
491
491
491
491
491
491
496
495
497
497
496
495
492
492
492
478
490
512
493
496
497
497
491
491
487
491
470
488
503
496
495
496
496
496
491
491
491
490
491
496
496
497
502
496
492
490
490
491
483
490
495
495
496
491
493
495
491
501
492
492
442
495
496
497
497
496
492
492
490
494
495
492
496
496
501
497
497
496
494
492
491
495
442
496
496
500
498
496
505
491
491
490
492
442
496
496
496
496
495
505
486
492
491
491
492
495
497
495
497
496
492
491
492
491
490
491
496
497
496
497
495
498
490
491
479
491
490
494
496
497
496
485
497
491
490
491
491
490
510
497
494
496
496
491
492
491
492
491
491
496
495
491
497
495
491
486
491
491
490
491
488
496
495
496
496
492
499
492
492
492
492
496
492
501
497
485
492
491
492
491
492
491
513
497
496
496
496
470
491
491
492
491
489
497
495
498
499
488
496
486
491
464
492
488
494
495
494
495
496
494
492
494
491
494
493
496
496
498
496
496
492
491
491
484
492
491
496
512
496
495
503
491
491
492
493
482
490
497
497
496
488
496
494
491
492
490
490
492
496
496
496
496
496
489
493
491
490
491
490
496
485
496
497
495
491
491
490
492
482
489
498
496
496
515
496
497
490
491
491
491
442
496
496
497
497
496
492
492
494
491
492
493
496
484
496
496
496
506
491
490
491
491
488
495
496
497
496
496
496
491
487
492
506
443
496
496
496
496
496
496
508
490
492
492
444
495
495
494
495
496
492
491
491
490
491
491
496
498
499
496
495
491
491
492
491
492
490
481
496
485
495
496
491
491
492
492
492
491
497
497
497
496
496
493
491
496
491
490
491
492
496
496
500
497
490
491
492
491
491
488
497
496
497
496
494
492
490
492
494
492
491
495
496
496
496
496
491
492
492
490
490
492
496
500
501
494
496
492
491
491
491
493
491
495
497
497
497
495
491
486
491
491
491
491
496
497
502
496
496
492
490
483
508
491
491
496
496
496
502
497
492
492
491
491
498
492
494
497
496
504
497
481
492
492
492
512
492
496
496
496
496
496
496
491
491
489
490
441
498
495
497
496
499
491
491
492
492
492
491
495
497
497
496
495
490
512
507
491
492
493
496
499
500
496
496
495
491
491
491
492
491
496
493
495
496
495
491
491
492
491
491
491
496
502
497
495
496
493
491
492
491
490
491
496
496
495
494
495
500
491
491
492
490
441
495
496
496
496
498
488
491
491
491
491
491
496
497
496
499
496
492
492
492
491
490
488
496
495
495
496
497
491
491
491
491
492
491
489
496
472
499
497
492
489
491
491
490
490
495
495
497
497
496
495
491
492
492
493
442
496
495
496
494
496
492
491
492
490
492
494
496
495
494
494
496
492
491
491
492
493
491
496
496
490
496
496
493
491
491
492
490
491
494
497
496
496
495
497
491
490
504
492
395
495
500
499
495
496
491
492
491
491
491
491
497
497
496
496
496
491
491
491
491
492
491
496
495
497
494
496
491
492
490
491
491
492
495
493
496
496
496
494
497
491
483
491
489
495
497
496
496
497
492
491
491
498
491
492
499
496
497
497
496
493
491
494
491
491
491
496
496
495
496
496
496
491
491
499
490
393
496
496
497
496
496
491
493
492
491
492
491
489
499
496
512
496
496
492
491
493
492
442
495
491
497
494
497
494
491
491
491
492
442
496
496
478
496
496
492
492
491
490
491
491
495
497
496
497
497
489
491
491
492
491
488
496
489
491
497
494
491
491
493
492
490
491
483
497
496
495
483
485
488
489
491
491
489
496
496
499
496
494
491
492
497
495
503
491
495
497
495
498
496
491
491
499
491
512
494
496
496
497
496
500
466
490
491
492
491
489
496
496
496
494
493
509
490
491
493
490
442
495
495
496
497
496
489
492
491
493
489
492
497
496
496
495
495
493
491
492
491
492
491
496
495
496
496
490
497
491
491
491
491
490
498
496
495
496
494
491
491
491
492
491
491
495
497
496
495
497
490
490
491
492
491
491
493
496
496
496
494
492
492
507
491
499
493
497
497
496
496
496
490
502
491
491
492
492
503
496
495
495
496
492
478
491
491
493
489
496
497
487
495
495
492
493
492
491
493
491
496
496
496
500
496
492
491
491
491
490
489
499
496
496
497
497
507
487
499
492
492
493
496
495
495
496
496
494
492
491
491
490
491
500
496
496
496
496
493
490
494
490
492
491
510
497
496
497
496
494
492
491
507
491
491
495
495
496
503
496
472
492
492
491
490
489
495
495
496
496
496
491
487
475
490
486
489
496
497
496
496
496
492
497
490
491
491
489
496
495
496
496
496
491
492
477
490
491
490
506
479
507
494
496
492
493
493
492
490
491
496
496
496
497
496
494
492
491
492
492
492
496
496
496
496
497
490
492
490
498
498
492
496
496
496
495
503
492
512
499
490
486
493
498
499
496
496
496
491
490
491
494
491
491
497
496
496
496
496
492
491
487
491
493
492
500
496
495
496
496
491
493
491
492
492
491
496
496
486
503
496
492
491
494
491
490
491
495
497
499
495
492
496
509
492
491
491
493
496
496
496
484
495
490
494
491
484
490
490
496
496
496
496
497
495
474
491
491
491
489
496
496
496
492
507
491
491
491
491
492
489
502
496
497
505
496
494
491
491
491
491
491
496
496
495
496
509
493
490
491
492
490
490
496
496
495
498
495
492
491
490
492
491
490
499
496
498
496
480
492
491
494
491
490
491
496
495
495
496
496
491
492
477
490
481
489
496
496
496
496
496
479
507
492
491
489
491
496
497
496
496
496
491
492
490
493
492
491
496
497
495
495
496
492
492
481
491
490
490
496
495
496
496
495
490
490
491
512
491
494
497
497
500
495
496
493
495
492
492
491
488
486
496
495
496
497
491
493
494
491
490
491
497
496
491
496
496
492
491
490
491
491
491
496
497
496
496
496
492
491
491
491
491
486
498
495
495
496
496
501
512
494
491
491
494
496
495
498
496
497
493
492
492
493
492
491
496
495
496
496
496
495
496
491
491
491
443
496
495
496
497
496
492
491
491
488
490
492
495
496
495
495
496
491
493
490
490
492
490
494
496
496
497
497
495
490
492
490
492
491
496
496
487
496
485
502
492
497
493
491
493
496
495
497
496
503
496
490
492
491
490
441
497
494
496
512
495
490
492
493
485
494
490
500
496
476
495
496
492
491
504
504
491
493
495
496
496
470
497
468
492
491
491
491
488
488
496
496
496
497
492
491
495
490
491
493
490
496
509
496
495
493
491
491
492
492
492
496
496
495
496
497
491
490
492
493
492
491
496
496
497
496
499
490
492
491
492
499
492
495
493
496
494
496
469
488
491
491
490
488
495
495
497
495
496
495
491
492
491
491
492
496
495
497
495
498
491
481
490
491
491
490
497
497
496
494
498
492
491
489
493
492
491
496
495
489
497
496
492
492
491
491
492
490
496
512
494
496
496
492
491
505
491
491
492
496
499
497
496
496
491
491
492
491
497
492
497
496
495
496
500
497
491
491
505
488
441
496
497
496
508
496
492
491
492
492
491
491
512
497
496
497
507
494
491
492
491
494
490
495
496
502
495
497
496
496
490
473
486
440
507
496
497
495
498
491
485
492
492
490
490
494
497
496
498
496
491
491
490
491
491
490
496
496
496
497
495
492
491
491
501
493
490
490
496
498
496
496
495
491
492
491
492
491
496
496
496
496
497
490
485
488
491
493
490
496
496
496
500
496
492
491
494
492
490
491
496
503
496
495
496
469
491
495
491
491
489
497
496
499
496
496
496
453
491
492
490
488
501
495
496
496
497
493
493
491
491
492
491
496
497
496
496
497
492
490
491
491
491
492
496
496
496
496
494
492
491
491
490
490
490
497
495
513
497
497
491
492
491
482
492
489
496
496
497
496
496
491
494
492
490
491
491
496
497
495
496
496
491
490
490
492
491
490
496
495
496
496
496
490
496
493
477
489
490
497
493
493
495
496
491
490
494
492
492
491
484
495
496
495
496
492
490
491
477
491
490
495
496
497
496
497
496
491
491
491
492
441
496
497
495
498
497
487
492
490
494
492
442
495
495
496
499
496
491
492
491
481
491
490
496
495
496
497
491
491
490
491
491
490
490
495
496
497
497
497
493
492
468
492
491
488
501
498
495
500
497
480
492
491
491
492
490
497
497
497
495
496
491
491
492
491
494
491
503
496
496
497
496
497
491
491
492
490
441
495
497
489
496
495
493
491
491
492
496
493
495
495
497
495
495
491
487
491
490
491
490
496
495
496
496
496
493
492
490
490
492
491
496
496
496
497
497
492
498
492
493
496
493
490
497
496
496
496
493
493
495
493
491
491
496
496
493
498
496
492
491
492
491
491
488
496
496
496
498
497
497
490
465
492
491
489
496
496
496
495
498
491
491
472
492
491
489
496
496
496
496
493
494
454
491
491
493
488
494
496
490
496
496
504
496
491
491
490
492
495
496
496
496
498
492
492
495
491
492
490
496
499
503
496
495
491
491
491
490
491
489
515
498
496
496
496
492
504
492
491
491
494
496
496
496
497
494
491
491
492
491
492
493
495
496
496
496
495
491
491
491
491
494
490
496
497
496
497
495
493
491
491
492
494
489
497
498
497
496
496
492
491
494
492
495
492
496
486
495
495
496
491
492
498
478
490
491
497
494
496
497
496
492
490
492
493
491
491
496
495
496
497
495
492
494
491
491
491
493
496
497
496
496
496
491
491
491
501
491
490
497
496
482
496
496
491
491
491
491
491
490
496
495
496
497
497
492
492
491
496
492
493
503
495
495
470
496
491
490
491
491
492
491
497
495
496
496
496
473
492
491
490
490
489
497
496
478
497
496
495
492
491
492
491
442
496
496
497
496
496
492
491
491
492
492
493
496
496
496
497
495
490
497
491
491
491
492
496
496
497
496
497
495
490
491
490
492
491
495
497
497
495
496
494
495
491
491
494
491
496
494
496
496
503
491
491
492
491
499
492
495
496
485
496
496
492
490
491
491
506
492
496
496
509
497
495
496
491
491
491
492
442
494
496
497
496
497
491
480
490
490
491
490
496
498
497
496
496
490
492
492
498
491
491
496
493
496
497
495
507
486
490
491
491
490
496
496
496
497
496
491
491
489
492
495
490
497
496
486
501
496
502
491
490
499
491
492
495
496
495
497
496
490
491
490
492
492
492
495
496
495
497
496
492
477
491
491
490
489
496
496
496
497
497
491
491
491
492
491
491
495
496
496
499
496
492
493
492
492
492
491
495
497
496
497
502
493
491
501
481
491
491
494
498
497
496
502
492
492
492
498
491
492
495
497
477
495
496
491
495
492
490
491
491
486
495
496
496
494
494
491
491
492
463
488
497
498
496
497
496
492
491
491
492
492
491
496
496
497
496
495
492
490
491
491
486
491
496
496
496
497
489
492
492
486
490
491
490
495
497
496
498
496
496
496
491
492
491
492
496
496
495
496
496
496
490
491
494
478
440
495
496
482
497
497
492
491
491
492
491
491
496
496
496
496
496
492
491
491
492
492
489
492
496
498
496
495
493
496
491
492
492
492
496
497
495
500
496
491
490
492
491
491
491
496
494
476
495
497
491
491
490
492
491
490
498
495
500
496
496
491
491
491
491
490
490
496
497
496
496
496
492
491
491
490
492
491
496
497
497
495
493
491
481
491
499
491
491
497
496
495
496
496
491
492
491
496
490
490
500
478
505
498
471
494
492
490
490
491
491
490
496
496
492
496
492
491
492
491
495
492
496
494
497
495
496
492
490
488
491
491
490
498
496
498
483
496
488
491
491
492
491
488
496
496
497
497
497
492
490
491
491
492
491
496
496
497
497
497
491
491
491
490
487
490
496
495
494
497
498
492
491
493
491
495
491
496
496
497
495
496
491
491
491
491
491
492
495
496
496
496
497
492
491
491
492
496
488
496
496
493
496
463
496
491
491
490
492
490
496
495
497
497
496
492
493
497
491
492
491
496
496
496
496
497
491
490
491
491
491
491
501
496
496
496
496
491
476
491
491
503
490
496
496
497
497
495
493
492
494
492
491
489
495
497
497
496
497
491
492
489
491
490
490
496
497
496
497
495
492
492
492
492
490
491
496
500
494
496
496
492
492
491
490
474
489
483
496
496
497
496
495
483
491
492
491
491
496
496
496
490
496
491
492
491
491
490
491
495
496
494
496
496
491
492
493
488
492
491
496
508
513
496
496
481
491
490
492
494
488
496
496
497
496
496
495
492
491
506
495
442
496
497
496
495
496
491
491
491
491
491
491
496
496
496
497
497
492
491
491
491
492
493
496
495
497
487
495
492
491
495
491
491
492
506
496
496
496
497
492
495
494
491
491
491
496
496
497
497
495
491
491
492
491
491
492
497
497
496
496
496
490
490
491
491
490
487
496
496
486
497
496
491
490
483
492
486
490
495
496
496
496
497
491
492
491
496
491
491
497
496
497
496
498
492
491
492
492
491
491
497
495
497
497
497
491
492
491
507
492
494
497
495
495
496
495
492
491
492
491
491
491
496
496
496
496
496
494
500
491
493
491
492
497
496
496
488
496
492
492
492
489
496
493
496
496
496
498
496
493
492
491
490
491
491
496
496
497
496
497
491
490
491
491
490
491
495
496
497
496
496
492
491
491
490
492
491
497
496
515
496
497
496
492
491
491
491
442
496
497
496
496
496
492
491
491
491
493
491
478
496
496
487
500
491
490
492
490
491
487
496
496
497
497
496
498
456
493
491
492
488
494
496
496
496
497
491
491
491
491
491
491
495
497
496
496
497
491
468
492
492
488
486
494
496
496
496
496
491
492
491
491
491
492
496
496
496
497
509
492
494
491
491
486
491
484
496
497
496
494
492
492
492
490
492
491
495
495
496
496
495
493
491
492
490
495
492
496
496
499
495
497
496
491
494
492
491
492
497
496
497
495
497
492
492
492
490
492
491
497
496
495
496
497
482
491
491
464
491
487
498
496
496
496
499
493
468
493
492
492
488
497
496
496
496
498
492
493
492
492
491
491
497
496
496
494
500
496
492
491
490
491
445
496
496
497
497
497
491
490
492
491
491
490
496
503
497
495
497
493
491
492
491
492
491
496
496
496
484
497
496
491
493
491
492
442
497
495
496
496
497
492
491
492
491
491
491
495
496
497
496
496
491
492
491
492
491
491
497
497
496
512
496
496
491
492
492
491
442
497
479
499
497
496
492
492
493
492
491
493
495
496
497
496
496
493
489
491
490
492
491
496
496
496
496
496
491
491
492
492
488
490
498
505
496
510
496
493
490
491
491
490
490
496
496
498
496
509
496
491
492
493
491
393
496
496
494
496
496
492
492
491
503
492
492
496
495
495
500
497
492
491
492
491
492
492
496
509
475
496
496
491
492
492
490
491
491
496
496
495
496
496
493
494
492
478
492
489
487
495
487
498
498
491
490
491
490
454
486
497
497
497
496
496
492
495
491
491
491
492
496
496
496
497
491
497
491
491
492
491
443
496
496
495
495
497
491
492
491
492
492
491
496
496
496
496
496
495
490
491
490
492
491
497
496
509
497
496
492
492
491
490
492
491
496
497
496
497
512
491
492
491
491
497
492
496
496
496
512
496
492
492
492
491
491
491
497
496
496
496
489
492
492
490
492
493
491
496
496
496
498
496
491
492
490
491
492
491
496
497
496
497
496
492
490
491
489
491
492
496
497
497
496
496
491
495
491
491
492
491
496
497
481
497
496
492
492
492
492
493
491
495
496
510
498
498
493
491
491
492
492
493
496
502
495
496
496
492
490
490
491
490
490
495
495
495
493
496
492
491
492
492
498
492
496
497
496
496
496
491
492
491
491
480
491
496
496
496
496
497
491
491
491
491
491
491
500
496
496
497
496
491
492
492
492
492
491
496
496
496
496
496
492
459
491
492
491
487
495
508
495
501
496
496
491
491
492
491
494
496
494
496
498
495
492
491
491
491
491
490
496
498
498
495
494
491
491
490
490
491
493
497
496
496
497
496
492
492
491
492
491
490
495
496
496
496
496
492
491
491
491
492
491
496
495
497
498
494
491
492
492
491
491
491
496
504
496
497
499
495
492
491
491
495
493
512
496
470
498
497
496
491
491
491
490
491
496
496
496
496
497
493
491
491
498
491
491
496
497
496
496
496
492
492
491
491
490
491
496
503
496
494
496
495
491
491
493
491
492
496
497
496
496
499
492
491
493
491
492
491
499
496
496
497
496
492
492
491
491
491
491
489
496
495
496
496
491
506
491
492
491
491
496
496
496
496
498
494
491
492
492
491
492
496
496
496
497
495
493
491
489
491
491
490
496
495
496
496
496
492
491
490
494
490
491
496
475
496
496
496
492
490
491
491
491
489
496
497
496
497
497
496
491
492
490
491
438
497
497
496
495
496
491
490
494
491
491
488
498
496
496
498
496
491
497
491
491
490
489
496
495
495
495
496
491
492
491
492
492
491
496
497
496
496
496
492
491
491
492
491
491
496
496
496
496
494
493
492
492
494
489
491
496
495
497
496
472
496
512
492
496
493
445
495
495
497
497
509
491
490
492
489
491
491
496
463
496
496
496
491
492
491
491
490
491
496
508
496
495
495
491
491
490
491
492
491
495
496
496
495
496
491
493
492
491
492
492
497
495
500
490
507
492
492
490
491
492
491
496
497
496
496
495
491
492
492
491
492
489
496
501
495
496
495
491
472
491
491
492
489
494
512
497
496
496
497
506
495
493
491
444
499
496
496
496
496
491
491
492
488
491
490
495
495
495
496
496
494
492
491
490
492
491
496
497
496
496
497
491
492
492
492
492
491
495
496
496
498
497
496
491
491
492
498
443
495
495
504
495
495
492
492
491
492
491
493
496
496
490
496
496
491
491
490
512
491
493
496
497
496
498
496
493
491
492
491
492
492
496
496
498
496
496
496
492
491
466
492
440
497
495
495
496
496
491
490
491
491
491
492
495
496
497
496
496
488
491
491
492
484
488
498
496
496
497
495
493
489
491
491
492
489
501
494
496
496
493
492
490
471
492
491
489
501
494
509
496
505
501
492
490
491
491
491
496
497
497
499
496
467
492
491
494
491
488
496
512
489
497
495
491
492
492
492
497
492
496
496
494
496
496
496
491
496
491
491
443
488
497
497
495
496
492
492
490
491
504
491
496
495
501
496
503
491
491
490
491
490
490
497
496
496
496
496
500
492
492
491
490
493
476
497
496
494
496
491
494
493
492
494
492
497
497
497
496
496
496
492
491
491
491
491
512
496
495
495
497
490
491
499
490
492
491
495
497
497
495
504
491
491
491
490
490
490
503
496
497
496
484
500
509
490
492
492
443
497
496
498
496
496
492
493
492
491
491
491
496
495
495
497
497
493
491
491
490
491
489
496
499
497
497
496
490
489
492
488
490
491
496
496
496
497
496
494
492
491
491
490
489
497
497
496
502
494
491
491
491
491
491
492
496
496
497
496
496
492
491
491
490
492
491
496
499
495
486
496
491
491
492
491
492
490
496
495
496
473
496
496
494
490
496
490
441
492
496
496
496
473
491
492
491
492
490
491
496
496
496
496
497
492
492
502
490
491
493
496
496
496
496
497
492
491
491
492
491
442
496
496
496
506
497
492
482
490
492
491
490
497
496
496
496
499
492
491
477
498
492
486
501
509
496
496
497
491
491
490
493
492
491
496
496
495
495
497
482
490
491
492
492
490
499
496
496
496
480
492
491
492
491
491
491
496
470
506
496
496
492
491
491
491
491
491
496
496
494
496
494
491
491
489
492
492
491
498
498
496
493
496
497
492
491
486
494
488
496
485
496
495
496
491
489
491
494
492
491
496
474
496
494
496
493
491
491
491
492
491
497
496
503
497
495
490
491
492
495
491
492
495
472
497
497
497
492
492
492
491
492
491
495
496
496
491
492
494
490
491
496
490
491
497
498
507
496
496
491
491
492
491
491
489
496
496
496
496
496
492
492
492
490
505
492
496
481
496
496
498
494
491
481
491
491
491
497
496
496
495
496
497
491
489
491
492
491
496
495
496
496
506
492
491
492
492
491
491
496
496
497
495
496
492
491
490
492
491
491
496
495
496
496
496
491
491
489
491
491
492
496
495
496
496
497
492
492
490
491
491
491
496
503
496
496
497
492
493
490
491
464
489
496
496
495
497
496
499
491
489
492
491
491
495
494
500
496
496
491
491
506
491
494
493
495
505
497
496
495
492
491
491
492
491
485
495
496
495
496
498
493
493
491
492
490
491
498
495
495
496
496
491
491
491
490
491
491
493
496
495
497
497
491
491
492
496
491
491
496
498
497
496
496
504
491
491
491
491
492
496
495
496
498
496
497
490
490
491
491
491
497
496
495
496
495
492
489
492
491
491
491
497
474
496
496
496
492
491
491
491
491
491
495
497
506
496
495
491
491
490
491
493
491
497
494
496
495
497
491
491
492
491
492
491
496
496
498
497
497
490
490
491
491
492
491
496
496
495
496
495
496
491
491
477
491
490
496
498
495
499
485
495
491
491
491
492
491
497
496
496
496
497
492
492
489
493
492
492
496
496
495
495
496
491
491
506
498
491
492
497
497
496
495
496
496
492
491
490
490
442
496
495
483
496
495
496
501
490
491
491
489
496
496
495
497
485
492
492
492
494
485
489
495
496
498
496
496
492
456
491
492
475
486
496
496
495
496
497
494
492
490
489
492
492
500
487
495
501
497
492
492
491
489
492
492
496
496
496
497
496
492
493
492
492
492
493
497
496
498
496
495
493
492
491
493
492
492
502
497
496
496
496
492
493
492
491
490
490
491
496
497
497
496
491
491
481
491
477
488
496
496
496
496
496
506
491
507
491
491
494
497
495
496
495
516
